1.905217405897061400e-01,1.046501871150715690e-01,4.937152830220342681e-02,3.472117337092416323e-01,2.522445417778448884e-01,3.731393377972444525e-01,4.900233264528688210e-02,2.080585342932420312e-01,1.046837503566094424e-01,3.000553793485374876e-02,1.480810216650724209e-01,1.603651680679319957e-01,4.700531977378374915e-02,2.174394603030760653e-01,1.824833442413868467e-01,6.623705717498196144e-02,5.101109265132826032e-01,1.006561613720653170e-01,3.540418533621977337e-01,2.103408347178170601e-01,1.330446894561076732e-01,1.964456527211398129e-01,3.788283072379130534e-01,6.063199583815805094e-02,5.154139186762657365e-01,2.430649952172380945e-01,1.013609894443605330e-02,1.194851398748091043e-02,5.592307305039521115e-01,3.872191176223799824e-01,2.220208427729950321e-02,4.057628085720518807e-01,1.905217405897061400e-01,1.046501871150715690e-01,4.937152830220342681e-02,3.472117337092416323e-01,2.522445417778448884e-01,3.731393377972444525e-01,4.900233264528688210e-02,2.080585342932420312e-01,1.046837503566094424e-01,3.000553793485374876e-02,1.480810216650724209e-01,1.603651680679319957e-01,4.700531977378374915e-02,2.174394603030760653e-01,1.824833442413868467e-01,6.623705717498196144e-02,5.101109265132826032e-01,1.006561613720653170e-01,3.540418533621977337e-01,2.103408347178170601e-01,1.330446894561076732e-01,1.964456527211398129e-01,3.788283072379130534e-01,6.063199583815805094e-02,5.154139186762657365e-01,2.430649952172380945e-01,1.013609894443605330e-02,1.194851398748091043e-02,5.592307305039521115e-01,3.872191176223799824e-01,2.220208427729950321e-02,4.057628085720518807e-01,1.905217405897061400e-01,1.046501871150715690e-01,4.937152830220342681e-02,3.472117337092416323e-01,2.522445417778448884e-01,3.731393377972444525e-01,4.900233264528688210e-02,2.080585342932420312e-01,2.181113949984514744e-01,1.068682371434288292e-01,1.341852348304791165e-01,3.374979405851609715e-01,2.881819447139783441e-01,4.601035873469453974e-01,5.262913721442560866e-02,1.827672510345462742e-01,1.239082214838092555e-01,1.794695837829607399e-01,2.832283840094925176e-01,1.411956145504662807e-01,9.149883597009807190e-02,1.885687233788949368e-01,1.663579963573066367e-01,8.924137151747693619e-02,5.004764510567961677e-01,1.650002295123400575e-01,3.496306023624869419e-01,2.737918206524178610e-01,1.369518855835325788e-01,2.354781555497318379e-01,3.557529271807335913e-01,1.008783623585795403e-01,4.777484693885991618e-01,2.538879233485958342e-01,4.650554435458811170e-02,2.183507016466576800e-01,5.335590191794794546e-01,3.896376671684709803e-01,3.961961617440778322e-02,3.801333245521454907e-01,2.181113949984514744e-01,1.068682371434288292e-01,1.341852348304791165e-01,3.374979405851609715e-01,2.881819447139783441e-01,4.601035873469453974e-01,5.262913721442560866e-02,1.827672510345462742e-01,1.239082214838092555e-01,1.794695837829607399e-01,2.832283840094925176e-01,1.411956145504662807e-01,9.149883597009807190e-02,1.885687233788949368e-01,1.663579963573066367e-01,8.924137151747693619e-02,5.004764510567961677e-01,1.650002295123400575e-01,3.496306023624869419e-01,2.737918206524178610e-01,1.369518855835325788e-01,2.354781555497318379e-01,3.557529271807335913e-01,1.008783623585795403e-01,4.777484693885991618e-01,2.538879233485958342e-01,4.650554435458811170e-02,2.183507016466576800e-01,5.335590191794794546e-01,3.896376671684709803e-01,3.961961617440778322e-02,3.801333245521454907e-01,2.181113949984514744e-01,1.068682371434288292e-01,1.341852348304791165e-01,3.374979405851609715e-01,2.881819447139783441e-01,4.601035873469453974e-01,5.262913721442560866e-02,1.827672510345462742e-01,2.713633564530302800e-01,1.307285146848574109e-01,2.486859492862656396e-01,3.096432393554839346e-01,3.442479365204514918e-01,6.205018650053596430e-01,6.312950726005794877e-02,1.156908658006555873e-01,1.737129187160332544e-01,3.157169696811684134e-01,4.530231366106445834e-01,8.787029157651071731e-02,1.481375902588893401e-01,1.267254062869577758e-01,1.253975540696703195e-01,1.352887232441367660e-01,4.714983996601595506e-01,2.590098593290481865e-01,3.288858754999054446e-01,3.866491574523635011e-01,1.496308389716978771e-01,3.017817463182338455e-01,2.918566961391951819e-01,1.594764690898802795e-01,3.780068850031375050e-01,2.832112561492898251e-01,9.905896739679011243e-02,4.016020132203500514e-01,4.561415263790293828e-01,3.899364841691653205e-01,8.542142898146670715e-02,3.097523397735302275e-01,2.713633564530302800e-01,1.307285146848574109e-01,2.486859492862656396e-01,3.096432393554839346e-01,3.442479365204514918e-01,6.205018650053596430e-01,6.312950726005794877e-02,1.156908658006555873e-01,1.737129187160332544e-01,3.157169696811684134e-01,4.530231366106445834e-01,8.787029157651071731e-02,1.481375902588893401e-01,1.267254062869577758e-01,1.253975540696703195e-01,1.352887232441367660e-01,4.714983996601595506e-01,2.590098593290481865e-01,3.288858754999054446e-01,3.866491574523635011e-01,1.496308389716978771e-01,3.017817463182338455e-01,2.918566961391951819e-01,1.594764690898802795e-01,3.780068850031375050e-01,2.832112561492898251e-01,9.905896739679011243e-02,4.016020132203500514e-01,4.561415263790293828e-01,3.899364841691653205e-01,8.542142898146670715e-02,3.097523397735302275e-01,2.713633564530302800e-01,1.307285146848574109e-01,2.486859492862656396e-01,3.096432393554839346e-01,3.442479365204514918e-01,6.205018650053596430e-01,6.312950726005794877e-02,1.156908658006555873e-01,3.103576669810740318e-01,1.916623948984225168e-01,3.492200625605811903e-01,2.684133856295635168e-01,3.572568899384098717e-01,7.450818429475901672e-01,7.921892756898012145e-02,4.114879341451137956e-02,2.380715773599600127e-01,3.854602662011529235e-01,5.391104110765945201e-01,1.799669214703409834e-02,1.808575411251492626e-01,1.370391872909039188e-01,1.028476032298646509e-01,1.845766710913749054e-01,4.246742353412268356e-01,3.231864909430609556e-01,2.780980386962657591e-01,4.761042878183214255e-01,1.738375771448055218e-01,3.377219483174406234e-01,2.018051855326194188e-01,1.991632844333642849e-01,2.580824471593147762e-01,3.223026615948890172e-01,1.558565902688673066e-01,5.221045270829783869e-01,3.287483771340722893e-01,3.737096525627643384e-01,1.508109999228954834e-01,2.110257656464147868e-01,3.103576669810740318e-01,1.916623948984225168e-01,3.492200625605811903e-01,2.684133856295635168e-01,3.572568899384098717e-01,7.450818429475901672e-01,7.921892756898012145e-02,4.114879341451137956e-02,2.380715773599600127e-01,3.854602662011529235e-01,5.391104110765945201e-01,1.799669214703409834e-02,1.808575411251492626e-01,1.370391872909039188e-01,1.028476032298646509e-01,1.845766710913749054e-01,4.246742353412268356e-01,3.231864909430609556e-01,2.780980386962657591e-01,4.761042878183214255e-01,1.738375771448055218e-01,3.377219483174406234e-01,2.018051855326194188e-01,1.991632844333642849e-01,2.580824471593147762e-01,3.223026615948890172e-01,1.558565902688673066e-01,5.221045270829783869e-01,3.287483771340722893e-01,3.737096525627643384e-01,1.508109999228954834e-01,2.110257656464147868e-01,3.103576669810740318e-01,1.916623948984225168e-01,3.492200625605811903e-01,2.684133856295635168e-01,3.572568899384098717e-01,7.450818429475901672e-01,7.921892756898012145e-02,4.114879341451137956e-02,3.148459256791344418e-01,2.717705304931994914e-01,4.170366486094371772e-01,2.254688960943702081e-01,3.128536241623217085e-01,7.891933177624258500e-01,9.834420916331826357e-02,7.900506969682581648e-02,2.987549544886644037e-01,3.813256730778237791e-01,5.152501010905200518e-01,7.404579148171486214e-02,1.855719039784342328e-01,2.350311052943080403e-01,1.652662356785007669e-01,2.297011398779951752e-01,3.662014528818553494e-01,3.444611400022083991e-01,1.934355353748507533e-01,5.175804570374483715e-01,2.121385830569637310e-01,3.225323520487424767e-01,1.064653399909532006e-01,2.105945657588134678e-01,1.948989698449940244e-01,3.587523830103353517e-01,2.037288886123373999e-01,5.630882490726046852e-01,1.615400627425093438e-01,3.303526649638428014e-01,2.228900188439807695e-01,1.019767720994745885e-01,3.148459256791344418e-01,2.717705304931994914e-01,4.170366486094371772e-01,2.254688960943702081e-01,3.128536241623217085e-01,7.891933177624258500e-01,9.834420916331826357e-02,7.900506969682581648e-02,2.987549544886644037e-01,3.813256730778237791e-01,5.152501010905200518e-01,7.404579148171486214e-02,1.855719039784342328e-01,2.350311052943080403e-01,1.652662356785007669e-01,2.297011398779951752e-01,3.662014528818553494e-01,3.444611400022083991e-01,1.934355353748507533e-01,5.175804570374483715e-01,2.121385830569637310e-01,3.225323520487424767e-01,1.064653399909532006e-01,2.105945657588134678e-01,1.948989698449940244e-01,3.587523830103353517e-01,2.037288886123373999e-01,5.630882490726046852e-01,1.615400627425093438e-01,3.303526649638428014e-01,2.228900188439807695e-01,1.019767720994745885e-01,3.148459256791344418e-01,2.717705304931994914e-01,4.170366486094371772e-01,2.254688960943702081e-01,3.128536241623217085e-01,7.891933177624258500e-01,9.834420916331826357e-02,7.900506969682581648e-02,2.799795748270886286e-01,3.432546766155089024e-01,4.351045725246818208e-01,2.045490764389283067e-01,2.533463696669578935e-01,7.424618247539290783e-01,1.165083224344888868e-01,1.347160616883106843e-01,3.386769889660867228e-01,3.228585493780306015e-01,3.932982795186001357e-01,1.400328625130202731e-01,1.737187133345490520e-01,3.234544958374209189e-01,2.687232430802281580e-01,2.666923841978161014e-01,3.074050248005009145e-01,3.244533895957233960e-01,1.000828105904048165e-01,5.083957931734084390e-01,2.629624951643100839e-01,2.598854788733357957e-01,3.616686791149966579e-02,1.949137955663773902e-01,2.208149656996627741e-01,3.793028302650858219e-01,2.292682990271201482e-01,5.222993167617376864e-01,3.113067537506729321e-02,2.593849354535470719e-01,2.854610061539309962e-01,1.402029928402661815e-02,2.799795748270886286e-01,3.432546766155089024e-01,4.351045725246818208e-01,2.045490764389283067e-01,2.533463696669578935e-01,7.424618247539290783e-01,1.165083224344888868e-01,1.347160616883106843e-01,3.386769889660867228e-01,3.228585493780306015e-01,3.932982795186001357e-01,1.400328625130202731e-01,1.737187133345490520e-01,3.234544958374209189e-01,2.687232430802281580e-01,2.666923841978161014e-01,3.074050248005009145e-01,3.244533895957233960e-01,1.000828105904048165e-01,5.083957931734084390e-01,2.629624951643100839e-01,2.598854788733357957e-01,3.616686791149966579e-02,1.949137955663773902e-01,2.208149656996627741e-01,3.793028302650858219e-01,2.292682990271201482e-01,5.222993167617376864e-01,3.113067537506729321e-02,2.593849354535470719e-01,2.854610061539309962e-01,1.402029928402661815e-02,2.799795748270886286e-01,3.432546766155089024e-01,4.351045725246818208e-01,2.045490764389283067e-01,2.533463696669578935e-01,7.424618247539290783e-01,1.165083224344888868e-01,1.347160616883106843e-01,2.133512321309791460e-01,3.803976001048191002e-01,3.940053214082488986e-01,2.299450174663465185e-01,2.714439854466554336e-01,6.165506575809488465e-01,1.287079292826740218e-01,1.592783157523761650e-01,3.464313185130008521e-01,2.599805666113832459e-01,2.394008754362769442e-01,1.719725576161052483e-01,1.693195501819322324e-01,3.642721856813617709e-01,3.665180557064212086e-01,2.942240146346369878e-01,2.598400318052926372e-01,2.716342677423478347e-01,1.137572517978110986e-01,4.589328814910312859e-01,3.186143950370213807e-01,1.721082716822918968e-01,4.977198723020509474e-02,1.632043257954153836e-01,2.455474816260946325e-01,3.733481972848090580e-01,2.253593247808682032e-01,4.120674591648468832e-01,1.998985743630211920e-01,1.711063439681669296e-01,3.230533342927088269e-01,1.233399265633129405e-01,2.133512321309791460e-01,3.803976001048191002e-01,3.940053214082488986e-01,2.299450174663465185e-01,2.714439854466554336e-01,6.165506575809488465e-01,1.287079292826740218e-01,1.592783157523761650e-01,3.464313185130008521e-01,2.599805666113832459e-01,2.394008754362769442e-01,1.719725576161052483e-01,1.693195501819322324e-01,3.642721856813617709e-01,3.665180557064212086e-01,2.942240146346369878e-01,2.598400318052926372e-01,2.716342677423478347e-01,1.137572517978110986e-01,4.589328814910312859e-01,3.186143950370213807e-01,1.721082716822918968e-01,4.977198723020509474e-02,1.632043257954153836e-01,2.455474816260946325e-01,3.733481972848090580e-01,2.253593247808682032e-01,4.120674591648468832e-01,1.998985743630211920e-01,1.711063439681669296e-01,3.230533342927088269e-01,1.233399265633129405e-01,2.133512321309791460e-01,3.803976001048191002e-01,3.940053214082488986e-01,2.299450174663465185e-01,2.714439854466554336e-01,6.165506575809488465e-01,1.287079292826740218e-01,1.592783157523761650e-01,1.353412042273765270e-01,3.634142728039320702e-01,2.972808263120358396e-01,2.937508775032663388e-01,3.656796132918285758e-01,4.385897520793550219e-01,1.299817540072371325e-01,1.718958883996178355e-01,3.196476349840970399e-01,2.560747862547393394e-01,2.524236782879406560e-01,1.580887648649938471e-01,1.882975305137006838e-01,3.502377510740922184e-01,4.345235747839607532e-01,3.143800271190659301e-01,2.280037514285735145e-01,1.957074130178028948e-01,2.046800586396740063e-01,3.869510848411366610e-01,3.666929199674348050e-01,1.095055979301753774e-01,6.672018931194953484e-02,1.365159485959241970e-01,2.155222403104570805e-01,3.367785878445764269e-01,1.942626411361692007e-01,2.569730710599624768e-01,3.266802298017884021e-01,8.372344685508516238e-02,3.264997954855669571e-01,2.460501050381527499e-01,1.353412042273765270e-01,3.634142728039320702e-01,2.972808263120358396e-01,2.937508775032663388e-01,3.656796132918285758e-01,4.385897520793550219e-01,1.299817540072371325e-01,1.718958883996178355e-01,3.196476349840970399e-01,2.560747862547393394e-01,2.524236782879406560e-01,1.580887648649938471e-01,1.882975305137006838e-01,3.502377510740922184e-01,4.345235747839607532e-01,3.143800271190659301e-01,2.280037514285735145e-01,1.957074130178028948e-01,2.046800586396740063e-01,3.869510848411366610e-01,3.666929199674348050e-01,1.095055979301753774e-01,6.672018931194953484e-02,1.365159485959241970e-01,2.155222403104570805e-01,3.367785878445764269e-01,1.942626411361692007e-01,2.569730710599624768e-01,3.266802298017884021e-01,8.372344685508516238e-02,3.264997954855669571e-01,2.460501050381527499e-01,1.353412042273765270e-01,3.634142728039320702e-01,2.972808263120358396e-01,2.937508775032663388e-01,3.656796132918285758e-01,4.385897520793550219e-01,1.299817540072371325e-01,1.718958883996178355e-01,8.843316140640788969e-02,2.833080163180297650e-01,1.636164587852781405e-01,3.690964601120508837e-01,4.459921940365499382e-01,2.466677038593872440e-01,1.167493159372811756e-01,2.122540011826073991e-01,2.656059626286751407e-01,3.082278525378721601e-01,4.279884628055386497e-01,1.043383926807119333e-01,2.174891023090881059e-01,2.942596219095706123e-01,4.608627592121573580e-01,3.315236727151744112e-01,2.095342996208760522e-01,1.056475083129928411e-01,2.685391403522620069e-01,3.116148160751627816e-01,3.932619153591936367e-01,1.385844896780160374e-01,6.638394330847374736e-02,1.332319482976347669e-01,1.419741391721197898e-01,2.762164512525208115e-01,1.465977550747258329e-01,9.546230740686900695e-02,3.811162618006300185e-01,1.980231081035757970e-02,2.996322183489463775e-01,3.733287148430488034e-01,8.843316140640788969e-02,2.833080163180297650e-01,1.636164587852781405e-01,3.690964601120508837e-01,4.459921940365499382e-01,2.466677038593872440e-01,1.167493159372811756e-01,2.122540011826073991e-01,2.656059626286751407e-01,3.082278525378721601e-01,4.279884628055386497e-01,1.043383926807119333e-01,2.174891023090881059e-01,2.942596219095706123e-01,4.608627592121573580e-01,3.315236727151744112e-01,2.095342996208760522e-01,1.056475083129928411e-01,2.685391403522620069e-01,3.116148160751627816e-01,3.932619153591936367e-01,1.385844896780160374e-01,6.638394330847374736e-02,1.332319482976347669e-01,1.419741391721197898e-01,2.762164512525208115e-01,1.465977550747258329e-01,9.546230740686900695e-02,3.811162618006300185e-01,1.980231081035757970e-02,2.996322183489463775e-01,3.733287148430488034e-01,8.843316140640788969e-02,2.833080163180297650e-01,1.636164587852781405e-01,3.690964601120508837e-01,4.459921940365499382e-01,2.466677038593872440e-01,1.167493159372811756e-01,2.122540011826073991e-01,1.068921871636940163e-01,1.505930211230995797e-01,4.314922340095382614e-02,4.348886464133018270e-01,4.611539749229183194e-01,1.091671259285920959e-01,8.805213902631303657e-02,2.821346131826402703e-01,1.985982982362880789e-01,3.661230917977913446e-01,5.831202786371342262e-01,8.068050971033069452e-02,2.348194219705247998e-01,2.214008593959513327e-01,4.459366435328555589e-01,3.480660806661097784e-01,2.023570790164372080e-01,2.461843007493175889e-02,2.823270436438134467e-01,2.476035033834739219e-01,3.865602476134202825e-01,2.050704843269282318e-01,9.729005684004127241e-02,1.427008490242796801e-01,1.366595583335728781e-01,2.149281285348746962e-01,9.699053821460169866e-02,1.032761650008986315e-01,3.527579252858246139e-01,1.536964033391654064e-02,2.659906390727531100e-01,4.869943174545385833e-01,1.068921871636940163e-01,1.505930211230995797e-01,4.314922340095382614e-02,4.348886464133018270e-01,4.611539749229183194e-01,1.091671259285920959e-01,8.805213902631303657e-02,2.821346131826402703e-01,1.985982982362880789e-01,3.661230917977913446e-01,5.831202786371342262e-01,8.068050971033069452e-02,2.348194219705247998e-01,2.214008593959513327e-01,4.459366435328555589e-01,3.480660806661097784e-01,2.023570790164372080e-01,2.461843007493175889e-02,2.823270436438134467e-01,2.476035033834739219e-01,3.865602476134202825e-01,2.050704843269282318e-01,9.729005684004127241e-02,1.427008490242796801e-01,1.366595583335728781e-01,2.149281285348746962e-01,9.699053821460169866e-02,1.032761650008986315e-01,3.527579252858246139e-01,1.536964033391654064e-02,2.659906390727531100e-01,4.869943174545385833e-01,1.068921871636940163e-01,1.505930211230995797e-01,4.314922340095382614e-02,4.348886464133018270e-01,4.611539749229183194e-01,1.091671259285920959e-01,8.805213902631303657e-02,2.821346131826402703e-01,1.340198260019524745e-01,1.051962234003569197e-01,1.186622505221965190e-01,4.778105543943793609e-01,4.021133205574651814e-01,1.554329230697326092e-01,4.675774465899177473e-02,3.441313227878198822e-01,1.341111222556089499e-01,4.114339648706462627e-01,6.596432411326865752e-01,1.645286464530242299e-01,2.293279972652552123e-01,1.550441608591316689e-01,4.001751158744565329e-01,3.605173652661367023e-01,2.014136398279599838e-01,8.637793809403894463e-02,2.478530850477548841e-01,2.009431447216187550e-01,3.405972681047818584e-01,2.628905225788690236e-01,1.765871443192725820e-01,1.403551843183675485e-01,2.520838618735371517e-01,1.937517891162144346e-01,6.262895265382451004e-02,2.197210166462474079e-01,2.519255546844983984e-01,1.467522431830660216e-02,2.632030403607998337e-01,5.633359660881247510e-01,1.340198260019524745e-01,1.051962234003569197e-01,1.186622505221965190e-01,4.778105543943793609e-01,4.021133205574651814e-01,1.554329230697326092e-01,4.675774465899177473e-02,3.441313227878198822e-01,1.341111222556089499e-01,4.114339648706462627e-01,6.596432411326865752e-01,1.645286464530242299e-01,2.293279972652552123e-01,1.550441608591316689e-01,4.001751158744565329e-01,3.605173652661367023e-01,2.014136398279599838e-01,8.637793809403894463e-02,2.478530850477548841e-01,2.009431447216187550e-01,3.405972681047818584e-01,2.628905225788690236e-01,1.765871443192725820e-01,1.403551843183675485e-01,2.520838618735371517e-01,1.937517891162144346e-01,6.262895265382451004e-02,2.197210166462474079e-01,2.519255546844983984e-01,1.467522431830660216e-02,2.632030403607998337e-01,5.633359660881247510e-01,1.340198260019524745e-01,1.051962234003569197e-01,1.186622505221965190e-01,4.778105543943793609e-01,4.021133205574651814e-01,1.554329230697326092e-01,4.675774465899177473e-02,3.441313227878198822e-01,1.395148198305319331e-01,2.836166994830432997e-01,1.873697846133135503e-01,4.907790306187788110e-01,2.967139421664512500e-01,2.343444519016889827e-01,1.852749589554726975e-02,3.639611441669892700e-01,8.124416844904222557e-02,4.508938659357843992e-01,6.458980334101169785e-01,2.532704185531671759e-01,2.045748656382820052e-01,9.944183164395803409e-02,3.365859901033003143e-01,3.613653203469646136e-01,1.892471232626162791e-01,1.469061341323703307e-01,1.835671937894615136e-01,1.694895530647112514e-01,2.581284235528380488e-01,3.041973476496296902e-01,2.759421305590053497e-01,1.181609472064529681e-01,3.677998136652628758e-01,2.242131905539530290e-01,7.242709979553725586e-02,2.972419851479101705e-01,1.154873340993027714e-01,7.441757038712790151e-02,2.999775703243266478e-01,5.843366901408351133e-01,1.395148198305319331e-01,2.836166994830432997e-01,1.873697846133135503e-01,4.907790306187788110e-01,2.967139421664512500e-01,2.343444519016889827e-01,1.852749589554726975e-02,3.639611441669892700e-01,8.124416844904222557e-02,4.508938659357843992e-01,6.458980334101169785e-01,2.532704185531671759e-01,2.045748656382820052e-01,9.944183164395803409e-02,3.365859901033003143e-01,3.613653203469646136e-01,1.892471232626162791e-01,1.469061341323703307e-01,1.835671937894615136e-01,1.694895530647112514e-01,2.581284235528380488e-01,3.041973476496296902e-01,2.759421305590053497e-01,1.181609472064529681e-01,3.677998136652628758e-01,2.242131905539530290e-01,7.242709979553725586e-02,2.972419851479101705e-01,1.154873340993027714e-01,7.441757038712790151e-02,2.999775703243266478e-01,5.843366901408351133e-01,1.395148198305319331e-01,2.836166994830432997e-01,1.873697846133135503e-01,4.907790306187788110e-01,2.967139421664512500e-01,2.343444519016889827e-01,1.852749589554726975e-02,3.639611441669892700e-01,1.338607405878517453e-01,4.669993663989454036e-01,1.900550699912522956e-01,4.721618942999338264e-01,2.169790993109362576e-01,2.663559229990035138e-01,6.289503630415792246e-02,3.250317662438410027e-01,4.515042907645910181e-02,4.882840307565423088e-01,5.555081270131111415e-01,2.956842089537481955e-01,1.777413961662056285e-01,4.447206445249944629e-02,2.612471567748507195e-01,3.471150340995280414e-01,1.416706164700884119e-01,1.642456010369229835e-01,1.192279380865012145e-01,1.486278973314024976e-01,1.544555542075029264e-01,3.250419663309865870e-01,3.713643308317831071e-01,1.058158467287174109e-01,4.330725945967195956e-01,2.634623469631153792e-01,1.235245860101604615e-01,3.310907893601915952e-01,1.082054494436048425e-01,1.667323775032610034e-01,3.402353037682484538e-01,5.469441159223783488e-01,1.338607405878517453e-01,4.669993663989454036e-01,1.900550699912522956e-01,4.721618942999338264e-01,2.169790993109362576e-01,2.663559229990035138e-01,6.289503630415792246e-02,3.250317662438410027e-01,4.515042907645910181e-02,4.882840307565423088e-01,5.555081270131111415e-01,2.956842089537481955e-01,1.777413961662056285e-01,4.447206445249944629e-02,2.612471567748507195e-01,3.471150340995280414e-01,1.416706164700884119e-01,1.642456010369229835e-01,1.192279380865012145e-01,1.486278973314024976e-01,1.544555542075029264e-01,3.250419663309865870e-01,3.713643308317831071e-01,1.058158467287174109e-01,4.330725945967195956e-01,2.634623469631153792e-01,1.235245860101604615e-01,3.310907893601915952e-01,1.082054494436048425e-01,1.667323775032610034e-01,3.402353037682484538e-01,5.469441159223783488e-01,1.338607405878517453e-01,4.669993663989454036e-01,1.900550699912522956e-01,4.721618942999338264e-01,2.169790993109362576e-01,2.663559229990035138e-01,6.289503630415792246e-02,3.250317662438410027e-01,0.000000000000000000e+00,0.000000000000000000e+00,0.000000000000000000e+00,0.000000000000000000e+00,0.000000000000000000e+00,0.000000000000000000e+00,0.000000000000000000e+00,0.000000000000000000e+00,0.000000000000000000e+00,0.000000000000000000e+00,0.000000000000000000e+00,0.000000000000000000e+00,0.000000000000000000e+00,0.000000000000000000e+00,0.000000000000000000e+00,0.000000000000000000e+00,0.000000000000000000e+00,0.000000000000000000e+00,0.000000000000000000e+00,0.000000000000000000e+00,0.000000000000000000e+00,0.000000000000000000e+00,0.000000000000000000e+00,0.000000000000000000e+00,0.000000000000000000e+00,0.000000000000000000e+00,0.000000000000000000e+00,0.000000000000000000e+00,0.000000000000000000e+00,0.000000000000000000e+00,0.000000000000000000e+00,0.000000000000000000e+00,0.000000000000000000e+00,0.000000000000000000e+00,0.000000000000000000e+00,0.000000000000000000e+00,0.000000000000000000e+00,0.000000000000000000e+00,0.000000000000000000e+00,0.000000000000000000e+00,0.000000000000000000e+00,0.000000000000000000e+00,0.000000000000000000e+00,0.000000000000000000e+00,0.000000000000000000e+00,0.000000000000000000e+00,0.000000000000000000e+00,0.000000000000000000e+00,0.000000000000000000e+00,0.000000000000000000e+00,0.000000000000000000e+00,0.000000000000000000e+00,0.000000000000000000e+00,0.000000000000000000e+00,0.000000000000000000e+00,0.000000000000000000e+00,0.000000000000000000e+00,0.000000000000000000e+00,0.000000000000000000e+00,0.000000000000000000e+00,0.000000000000000000e+00,0.000000000000000000e+00,0.000000000000000000e+00,0.000000000000000000e+00,0.000000000000000000e+00,0.000000000000000000e+00,0.000000000000000000e+00,0.000000000000000000e+00,0.000000000000000000e+00,0.000000000000000000e+00,0.000000000000000000e+00,0.000000000000000000e+00,0.000000000000000000e+00,0.000000000000000000e+00
3.731393377972444525e-01,4.900233264528688210e-02,2.080585342932420312e-01,1.046837503566094424e-01,3.000553793485374876e-02,1.480810216650724209e-01,1.603651680679319957e-01,4.700531977378374915e-02,2.174394603030760653e-01,1.824833442413868467e-01,6.623705717498196144e-02,5.101109265132826032e-01,1.006561613720653170e-01,3.540418533621977337e-01,2.103408347178170601e-01,1.330446894561076732e-01,1.964456527211398129e-01,3.788283072379130534e-01,6.063199583815805094e-02,5.154139186762657365e-01,2.430649952172380945e-01,1.013609894443605330e-02,1.194851398748091043e-02,5.592307305039521115e-01,3.872191176223799824e-01,2.220208427729950321e-02,4.057628085720518807e-01,8.630787561462685553e-02,9.241638557451878344e-02,2.537213244055110950e-01,3.461377099800298507e-01,8.083706724395442467e-02,1.100874322442061369e-02,6.162882411183272513e-01,5.880279917434425713e-02,9.206397153837117542e-02,2.917484770679152351e-01,2.929399721425094971e-01,1.736897749584654857e-02,2.208461293191696373e-02,1.636711473594119615e-01,5.002936783634563955e-01,3.731393377972444525e-01,4.900233264528688210e-02,2.080585342932420312e-01,1.046837503566094424e-01,3.000553793485374876e-02,1.480810216650724209e-01,1.603651680679319957e-01,4.700531977378374915e-02,2.174394603030760653e-01,1.824833442413868467e-01,6.623705717498196144e-02,5.101109265132826032e-01,1.006561613720653170e-01,3.540418533621977337e-01,2.103408347178170601e-01,1.330446894561076732e-01,1.964456527211398129e-01,3.788283072379130534e-01,6.063199583815805094e-02,5.154139186762657365e-01,2.430649952172380945e-01,1.013609894443605330e-02,1.194851398748091043e-02,5.592307305039521115e-01,3.872191176223799824e-01,2.220208427729950321e-02,4.057628085720518807e-01,8.630787561462685553e-02,9.241638557451878344e-02,2.537213244055110950e-01,4.601035873469453974e-01,5.262913721442560866e-02,1.827672510345462742e-01,1.239082214838092555e-01,1.794695837829607399e-01,2.832283840094925176e-01,1.411956145504662807e-01,9.149883597009807190e-02,1.885687233788949368e-01,1.663579963573066367e-01,8.924137151747693619e-02,5.004764510567961677e-01,1.650002295123400575e-01,3.496306023624869419e-01,2.737918206524178610e-01,1.369518855835325788e-01,2.354781555497318379e-01,3.557529271807335913e-01,1.008783623585795403e-01,4.777484693885991618e-01,2.538879233485958342e-01,4.650554435458811170e-02,2.183507016466576800e-01,5.335590191794794546e-01,3.896376671684709803e-01,3.961961617440778322e-02,3.801333245521454907e-01,1.369237449043556876e-01,6.427089745938927012e-02,2.151923320881906354e-01,3.880502708406977086e-01,1.862098149095551824e-01,1.148451744681142778e-01,5.717772083694555585e-01,7.038097441067424354e-02,1.638192066523508628e-01,2.711690939598131456e-01,2.881620775131590872e-01,3.754879209937016238e-02,1.006631230445445141e-01,1.945550785095139235e-01,5.118357796958696859e-01,4.601035873469453974e-01,5.262913721442560866e-02,1.827672510345462742e-01,1.239082214838092555e-01,1.794695837829607399e-01,2.832283840094925176e-01,1.411956145504662807e-01,9.149883597009807190e-02,1.885687233788949368e-01,1.663579963573066367e-01,8.924137151747693619e-02,5.004764510567961677e-01,1.650002295123400575e-01,3.496306023624869419e-01,2.737918206524178610e-01,1.369518855835325788e-01,2.354781555497318379e-01,3.557529271807335913e-01,1.008783623585795403e-01,4.777484693885991618e-01,2.538879233485958342e-01,4.650554435458811170e-02,2.183507016466576800e-01,5.335590191794794546e-01,3.896376671684709803e-01,3.961961617440778322e-02,3.801333245521454907e-01,1.369237449043556876e-01,6.427089745938927012e-02,2.151923320881906354e-01,6.205018650053596430e-01,6.312950726005794877e-02,1.156908658006555873e-01,1.737129187160332544e-01,3.157169696811684134e-01,4.530231366106445834e-01,8.787029157651071731e-02,1.481375902588893401e-01,1.267254062869577758e-01,1.253975540696703195e-01,1.352887232441367660e-01,4.714983996601595506e-01,2.590098593290481865e-01,3.288858754999054446e-01,3.866491574523635011e-01,1.496308389716978771e-01,3.017817463182338455e-01,2.918566961391951819e-01,1.594764690898802795e-01,3.780068850031375050e-01,2.832112561492898251e-01,9.905896739679011243e-02,4.016020132203500514e-01,4.561415263790293828e-01,3.899364841691653205e-01,8.542142898146670715e-02,3.097523397735302275e-01,2.174596917604907642e-01,7.744646304520103053e-02,1.096871766574897822e-01,4.613292128010417215e-01,3.241160840419599620e-01,2.116718206652230538e-01,4.504765109224738162e-01,1.007805793467110023e-01,2.603019395431893646e-01,2.343703563464610840e-01,2.742568085692686508e-01,8.555288984646636230e-02,1.810383865931218805e-01,2.570656814463809225e-01,5.186978219913811472e-01,6.205018650053596430e-01,6.312950726005794877e-02,1.156908658006555873e-01,1.737129187160332544e-01,3.157169696811684134e-01,4.530231366106445834e-01,8.787029157651071731e-02,1.481375902588893401e-01,1.267254062869577758e-01,1.253975540696703195e-01,1.352887232441367660e-01,4.714983996601595506e-01,2.590098593290481865e-01,3.288858754999054446e-01,3.866491574523635011e-01,1.496308389716978771e-01,3.017817463182338455e-01,2.918566961391951819e-01,1.594764690898802795e-01,3.780068850031375050e-01,2.832112561492898251e-01,9.905896739679011243e-02,4.016020132203500514e-01,4.561415263790293828e-01,3.899364841691653205e-01,8.542142898146670715e-02,3.097523397735302275e-01,2.174596917604907642e-01,7.744646304520103053e-02,1.096871766574897822e-01,7.450818429475901672e-01,7.921892756898012145e-02,4.114879341451137956e-02,2.380715773599600127e-01,3.854602662011529235e-01,5.391104110765945201e-01,1.799669214703409834e-02,1.808575411251492626e-01,1.370391872909039188e-01,1.028476032298646509e-01,1.845766710913749054e-01,4.246742353412268356e-01,3.231864909430609556e-01,2.780980386962657591e-01,4.761042878183214255e-01,1.738375771448055218e-01,3.377219483174406234e-01,2.018051855326194188e-01,1.991632844333642849e-01,2.580824471593147762e-01,3.223026615948890172e-01,1.558565902688673066e-01,5.221045270829783869e-01,3.287483771340722893e-01,3.737096525627643384e-01,1.508109999228954834e-01,2.110257656464147868e-01,2.805031231995541163e-01,2.020954917227038572e-01,5.347155740140496077e-02,4.949594210844796005e-01,4.309221255715067200e-01,2.784260428064244119e-01,2.858336208543537094e-01,1.451309075868237597e-01,3.176618119332936252e-01,2.470984518338623648e-01,2.528023817334061896e-01,1.537719431758597100e-01,2.298954294724202541e-01,3.091894423254388236e-01,4.740754008477054970e-01,7.450818429475901672e-01,7.921892756898012145e-02,4.114879341451137956e-02,2.380715773599600127e-01,3.854602662011529235e-01,5.391104110765945201e-01,1.799669214703409834e-02,1.808575411251492626e-01,1.370391872909039188e-01,1.028476032298646509e-01,1.845766710913749054e-01,4.246742353412268356e-01,3.231864909430609556e-01,2.780980386962657591e-01,4.761042878183214255e-01,1.738375771448055218e-01,3.377219483174406234e-01,2.018051855326194188e-01,1.991632844333642849e-01,2.580824471593147762e-01,3.223026615948890172e-01,1.558565902688673066e-01,5.221045270829783869e-01,3.287483771340722893e-01,3.737096525627643384e-01,1.508109999228954834e-01,2.110257656464147868e-01,2.805031231995541163e-01,2.020954917227038572e-01,5.347155740140496077e-02,7.891933177624258500e-01,9.834420916331826357e-02,7.900506969682581648e-02,2.987549544886644037e-01,3.813256730778237791e-01,5.152501010905200518e-01,7.404579148171486214e-02,1.855719039784342328e-01,2.350311052943080403e-01,1.652662356785007669e-01,2.297011398779951752e-01,3.662014528818553494e-01,3.444611400022083991e-01,1.934355353748507533e-01,5.175804570374483715e-01,2.121385830569637310e-01,3.225323520487424767e-01,1.064653399909532006e-01,2.105945657588134678e-01,1.948989698449940244e-01,3.587523830103353517e-01,2.037288886123373999e-01,5.630882490726046852e-01,1.615400627425093438e-01,3.303526649638428014e-01,2.228900188439807695e-01,1.019767720994745885e-01,3.089485571278393627e-01,3.333521759250272498e-01,2.068710475009780669e-01,4.599175055085000796e-01,4.980333915829043279e-01,3.092817250505456306e-01,1.257898030876903328e-01,1.974078804234032369e-01,3.237002812817805220e-01,3.255411207322702616e-01,2.270690626408050916e-01,2.297300694065699256e-01,2.343769217610895128e-01,3.214923987784651382e-01,3.618871893643370030e-01,7.891933177624258500e-01,9.834420916331826357e-02,7.900506969682581648e-02,2.987549544886644037e-01,3.813256730778237791e-01,5.152501010905200518e-01,7.404579148171486214e-02,1.855719039784342328e-01,2.350311052943080403e-01,1.652662356785007669e-01,2.297011398779951752e-01,3.662014528818553494e-01,3.444611400022083991e-01,1.934355353748507533e-01,5.175804570374483715e-01,2.121385830569637310e-01,3.225323520487424767e-01,1.064653399909532006e-01,2.105945657588134678e-01,1.948989698449940244e-01,3.587523830103353517e-01,2.037288886123373999e-01,5.630882490726046852e-01,1.615400627425093438e-01,3.303526649638428014e-01,2.228900188439807695e-01,1.019767720994745885e-01,3.089485571278393627e-01,3.333521759250272498e-01,2.068710475009780669e-01,7.424618247539290783e-01,1.165083224344888868e-01,1.347160616883106843e-01,3.386769889660867228e-01,3.228585493780306015e-01,3.932982795186001357e-01,1.400328625130202731e-01,1.737187133345490520e-01,3.234544958374209189e-01,2.687232430802281580e-01,2.666923841978161014e-01,3.074050248005009145e-01,3.244533895957233960e-01,1.000828105904048165e-01,5.083957931734084390e-01,2.629624951643100839e-01,2.598854788733357957e-01,3.616686791149966579e-02,1.949137955663773902e-01,2.208149656996627741e-01,3.793028302650858219e-01,2.292682990271201482e-01,5.222993167617376864e-01,3.113067537506729321e-02,2.593849354535470719e-01,2.854610061539309962e-01,1.402029928402661815e-02,2.947558169764926683e-01,4.255707955144150678e-01,3.382978711825200269e-01,3.648345520414646437e-01,5.300904377168685899e-01,3.067854591231543582e-01,5.709486402994620735e-02,2.447527658822769014e-01,2.857065429010617330e-01,4.119561801011902280e-01,2.019427659634255579e-01,2.939847799507230852e-01,1.887922510831684941e-01,2.750799563687832960e-01,2.322511238305716708e-01,7.424618247539290783e-01,1.165083224344888868e-01,1.347160616883106843e-01,3.386769889660867228e-01,3.228585493780306015e-01,3.932982795186001357e-01,1.400328625130202731e-01,1.737187133345490520e-01,3.234544958374209189e-01,2.687232430802281580e-01,2.666923841978161014e-01,3.074050248005009145e-01,3.244533895957233960e-01,1.000828105904048165e-01,5.083957931734084390e-01,2.629624951643100839e-01,2.598854788733357957e-01,3.616686791149966579e-02,1.949137955663773902e-01,2.208149656996627741e-01,3.793028302650858219e-01,2.292682990271201482e-01,5.222993167617376864e-01,3.113067537506729321e-02,2.593849354535470719e-01,2.854610061539309962e-01,1.402029928402661815e-02,2.947558169764926683e-01,4.255707955144150678e-01,3.382978711825200269e-01,6.165506575809488465e-01,1.287079292826740218e-01,1.592783157523761650e-01,3.464313185130008521e-01,2.599805666113832459e-01,2.394008754362769442e-01,1.719725576161052483e-01,1.693195501819322324e-01,3.642721856813617709e-01,3.665180557064212086e-01,2.942240146346369878e-01,2.598400318052926372e-01,2.716342677423478347e-01,1.137572517978110986e-01,4.589328814910312859e-01,3.186143950370213807e-01,1.721082716822918968e-01,4.977198723020509474e-02,1.632043257954153836e-01,2.455474816260946325e-01,3.733481972848090580e-01,2.253593247808682032e-01,4.120674591648468832e-01,1.998985743630211920e-01,1.711063439681669296e-01,3.230533342927088269e-01,1.233399265633129405e-01,2.391029906414575412e-01,4.500302498039103760e-01,4.136064731427241403e-01,2.506267925696696319e-01,5.364420349505995000e-01,2.802939311224918462e-01,8.850271482357498221e-02,2.689584263338410941e-01,2.252955451822780397e-01,4.640901745128309108e-01,1.822463262965269559e-01,3.238570856213531801e-01,1.002705163802093125e-01,1.655317567970558401e-01,2.503512773488002496e-01,6.165506575809488465e-01,1.287079292826740218e-01,1.592783157523761650e-01,3.464313185130008521e-01,2.599805666113832459e-01,2.394008754362769442e-01,1.719725576161052483e-01,1.693195501819322324e-01,3.642721856813617709e-01,3.665180557064212086e-01,2.942240146346369878e-01,2.598400318052926372e-01,2.716342677423478347e-01,1.137572517978110986e-01,4.589328814910312859e-01,3.186143950370213807e-01,1.721082716822918968e-01,4.977198723020509474e-02,1.632043257954153836e-01,2.455474816260946325e-01,3.733481972848090580e-01,2.253593247808682032e-01,4.120674591648468832e-01,1.998985743630211920e-01,1.711063439681669296e-01,3.230533342927088269e-01,1.233399265633129405e-01,2.391029906414575412e-01,4.500302498039103760e-01,4.136064731427241403e-01,4.385897520793550219e-01,1.299817540072371325e-01,1.718958883996178355e-01,3.196476349840970399e-01,2.560747862547393394e-01,2.524236782879406560e-01,1.580887648649938471e-01,1.882975305137006838e-01,3.502377510740922184e-01,4.345235747839607532e-01,3.143800271190659301e-01,2.280037514285735145e-01,1.957074130178028948e-01,2.046800586396740063e-01,3.869510848411366610e-01,3.666929199674348050e-01,1.095055979301753774e-01,6.672018931194953484e-02,1.365159485959241970e-01,2.155222403104570805e-01,3.367785878445764269e-01,1.942626411361692007e-01,2.569730710599624768e-01,3.266802298017884021e-01,8.372344685508516238e-02,3.264997954855669571e-01,2.460501050381527499e-01,1.544825007914232273e-01,3.964239264897193027e-01,4.171648574286080380e-01,1.898905432478056043e-01,5.222734586703124959e-01,2.422467148340735343e-01,6.783892281313350092e-02,2.527588551960157637e-01,1.728192074343010975e-01,4.721044920348471119e-01,1.696732499030622898e-01,2.994260536213879664e-01,6.852855549244965538e-02,8.752044495679308853e-03,3.912370749531628999e-01,4.385897520793550219e-01,1.299817540072371325e-01,1.718958883996178355e-01,3.196476349840970399e-01,2.560747862547393394e-01,2.524236782879406560e-01,1.580887648649938471e-01,1.882975305137006838e-01,3.502377510740922184e-01,4.345235747839607532e-01,3.143800271190659301e-01,2.280037514285735145e-01,1.957074130178028948e-01,2.046800586396740063e-01,3.869510848411366610e-01,3.666929199674348050e-01,1.095055979301753774e-01,6.672018931194953484e-02,1.365159485959241970e-01,2.155222403104570805e-01,3.367785878445764269e-01,1.942626411361692007e-01,2.569730710599624768e-01,3.266802298017884021e-01,8.372344685508516238e-02,3.264997954855669571e-01,2.460501050381527499e-01,1.544825007914232273e-01,3.964239264897193027e-01,4.171648574286080380e-01,2.466677038593872440e-01,1.167493159372811756e-01,2.122540011826073991e-01,2.656059626286751407e-01,3.082278525378721601e-01,4.279884628055386497e-01,1.043383926807119333e-01,2.174891023090881059e-01,2.942596219095706123e-01,4.608627592121573580e-01,3.315236727151744112e-01,2.095342996208760522e-01,1.056475083129928411e-01,2.685391403522620069e-01,3.116148160751627816e-01,3.932619153591936367e-01,1.385844896780160374e-01,6.638394330847374736e-02,1.332319482976347669e-01,1.419741391721197898e-01,2.762164512525208115e-01,1.465977550747258329e-01,9.546230740686900695e-02,3.811162618006300185e-01,1.980231081035757970e-02,2.996322183489463775e-01,3.733287148430488034e-01,7.324470128302522365e-02,2.748243546236048829e-01,3.506502845967837678e-01,2.107775592954030941e-01,4.844693686649740871e-01,2.031946094065532060e-01,2.868855598334396628e-02,1.870459925798151624e-01,1.529410962426409892e-01,4.534539107465935248e-01,1.614617606700690933e-01,2.106941406213455048e-01,1.964207484128830672e-01,1.728646475822187278e-01,4.923209155857773411e-01,2.466677038593872440e-01,1.167493159372811756e-01,2.122540011826073991e-01,2.656059626286751407e-01,3.082278525378721601e-01,4.279884628055386497e-01,1.043383926807119333e-01,2.174891023090881059e-01,2.942596219095706123e-01,4.608627592121573580e-01,3.315236727151744112e-01,2.095342996208760522e-01,1.056475083129928411e-01,2.685391403522620069e-01,3.116148160751627816e-01,3.932619153591936367e-01,1.385844896780160374e-01,6.638394330847374736e-02,1.332319482976347669e-01,1.419741391721197898e-01,2.762164512525208115e-01,1.465977550747258329e-01,9.546230740686900695e-02,3.811162618006300185e-01,1.980231081035757970e-02,2.996322183489463775e-01,3.733287148430488034e-01,7.324470128302522365e-02,2.748243546236048829e-01,3.506502845967837678e-01,1.091671259285920959e-01,8.805213902631303657e-02,2.821346131826402703e-01,1.985982982362880789e-01,3.661230917977913446e-01,5.831202786371342262e-01,8.068050971033069452e-02,2.348194219705247998e-01,2.214008593959513327e-01,4.459366435328555589e-01,3.480660806661097784e-01,2.023570790164372080e-01,2.461843007493175889e-02,2.823270436438134467e-01,2.476035033834739219e-01,3.865602476134202825e-01,2.050704843269282318e-01,9.729005684004127241e-02,1.427008490242796801e-01,1.366595583335728781e-01,2.149281285348746962e-01,9.699053821460169866e-02,1.032761650008986315e-01,3.527579252858246139e-01,1.536964033391654064e-02,2.659906390727531100e-01,4.869943174545385833e-01,8.437103981026208843e-02,1.147965546099935369e-01,2.317879693163976407e-01,2.332609275459596176e-01,4.163802137868088948e-01,1.680063097192240340e-01,1.263657596175778997e-01,7.744064924794452631e-02,1.619952293992881209e-01,4.405377709306253498e-01,1.533187205472473225e-01,7.263831065699723200e-02,3.253680997380585249e-01,3.323328199156971308e-01,4.961797074909948813e-01,1.091671259285920959e-01,8.805213902631303657e-02,2.821346131826402703e-01,1.985982982362880789e-01,3.661230917977913446e-01,5.831202786371342262e-01,8.068050971033069452e-02,2.348194219705247998e-01,2.214008593959513327e-01,4.459366435328555589e-01,3.480660806661097784e-01,2.023570790164372080e-01,2.461843007493175889e-02,2.823270436438134467e-01,2.476035033834739219e-01,3.865602476134202825e-01,2.050704843269282318e-01,9.729005684004127241e-02,1.427008490242796801e-01,1.366595583335728781e-01,2.149281285348746962e-01,9.699053821460169866e-02,1.032761650008986315e-01,3.527579252858246139e-01,1.536964033391654064e-02,2.659906390727531100e-01,4.869943174545385833e-01,8.437103981026208843e-02,1.147965546099935369e-01,2.317879693163976407e-01,1.554329230697326092e-01,4.675774465899177473e-02,3.441313227878198822e-01,1.341111222556089499e-01,4.114339648706462627e-01,6.596432411326865752e-01,1.645286464530242299e-01,2.293279972652552123e-01,1.550441608591316689e-01,4.001751158744565329e-01,3.605173652661367023e-01,2.014136398279599838e-01,8.637793809403894463e-02,2.478530850477548841e-01,2.009431447216187550e-01,3.405972681047818584e-01,2.628905225788690236e-01,1.765871443192725820e-01,1.403551843183675485e-01,2.520838618735371517e-01,1.937517891162144346e-01,6.262895265382451004e-02,2.197210166462474079e-01,2.519255546844983984e-01,1.467522431830660216e-02,2.632030403607998337e-01,5.633359660881247510e-01,1.386135878407367961e-01,7.671250059159673285e-02,8.981703946266694771e-02,2.122783355481204226e-01,3.177701740723899437e-01,1.364902134795437094e-01,2.247603803353023788e-01,7.262016015990778450e-02,1.847298643682952768e-01,4.507461166229984606e-01,1.433096245433956306e-01,1.545739324529921965e-01,4.196569263942643291e-01,4.354329590641710657e-01,4.012997147060994307e-01,1.554329230697326092e-01,4.675774465899177473e-02,3.441313227878198822e-01,1.341111222556089499e-01,4.114339648706462627e-01,6.596432411326865752e-01,1.645286464530242299e-01,2.293279972652552123e-01,1.550441608591316689e-01,4.001751158744565329e-01,3.605173652661367023e-01,2.014136398279599838e-01,8.637793809403894463e-02,2.478530850477548841e-01,2.009431447216187550e-01,3.405972681047818584e-01,2.628905225788690236e-01,1.765871443192725820e-01,1.403551843183675485e-01,2.520838618735371517e-01,1.937517891162144346e-01,6.262895265382451004e-02,2.197210166462474079e-01,2.519255546844983984e-01,1.467522431830660216e-02,2.632030403607998337e-01,5.633359660881247510e-01,1.386135878407367961e-01,7.671250059159673285e-02,8.981703946266694771e-02,2.343444519016889827e-01,1.852749589554726975e-02,3.639611441669892700e-01,8.124416844904222557e-02,4.508938659357843992e-01,6.458980334101169785e-01,2.532704185531671759e-01,2.045748656382820052e-01,9.944183164395803409e-02,3.365859901033003143e-01,3.613653203469646136e-01,1.892471232626162791e-01,1.469061341323703307e-01,1.835671937894615136e-01,1.694895530647112514e-01,2.581284235528380488e-01,3.041973476496296902e-01,2.759421305590053497e-01,1.181609472064529681e-01,3.677998136652628758e-01,2.242131905539530290e-01,7.242709979553725586e-02,2.972419851479101705e-01,1.154873340993027714e-01,7.441757038712790151e-02,2.999775703243266478e-01,5.843366901408351133e-01,1.668152510981830705e-01,2.101483149207336587e-01,4.865976476250977178e-02,1.556002898723267414e-01,2.059368522606231655e-01,1.079997898596405936e-01,2.856266687426350370e-01,2.090828409575689328e-01,2.167053280188979691e-01,4.652832457923169462e-01,1.325007589057127233e-01,3.573191118113928089e-01,4.635655802965610861e-01,4.593782011120015052e-01,2.593630788866312931e-01,2.343444519016889827e-01,1.852749589554726975e-02,3.639611441669892700e-01,8.124416844904222557e-02,4.508938659357843992e-01,6.458980334101169785e-01,2.532704185531671759e-01,2.045748656382820052e-01,9.944183164395803409e-02,3.365859901033003143e-01,3.613653203469646136e-01,1.892471232626162791e-01,1.469061341323703307e-01,1.835671937894615136e-01,1.694895530647112514e-01,2.581284235528380488e-01,3.041973476496296902e-01,2.759421305590053497e-01,1.181609472064529681e-01,3.677998136652628758e-01,2.242131905539530290e-01,7.242709979553725586e-02,2.972419851479101705e-01,1.154873340993027714e-01,7.441757038712790151e-02,2.999775703243266478e-01,5.843366901408351133e-01,1.668152510981830705e-01,2.101483149207336587e-01,4.865976476250977178e-02,2.663559229990035138e-01,6.289503630415792246e-02,3.250317662438410027e-01,4.515042907645910181e-02,4.882840307565423088e-01,5.555081270131111415e-01,2.956842089537481955e-01,1.777413961662056285e-01,4.447206445249944629e-02,2.612471567748507195e-01,3.471150340995280414e-01,1.416706164700884119e-01,1.642456010369229835e-01,1.192279380865012145e-01,1.486278973314024976e-01,1.544555542075029264e-01,3.250419663309865870e-01,3.713643308317831071e-01,1.058158467287174109e-01,4.330725945967195956e-01,2.634623469631153792e-01,1.235245860101604615e-01,3.310907893601915952e-01,1.082054494436048425e-01,1.667323775032610034e-01,3.402353037682484538e-01,5.469441159223783488e-01,1.703720383748413003e-01,2.952731811081867330e-01,1.449181999169194546e-01,1.079857903939302616e-01,1.392719922142254263e-01,8.490702612992218068e-02,2.973217918957348216e-01,3.150386992169886824e-01,2.512161904696689207e-01,4.506691922004825157e-01,1.219797811086483774e-01,5.366958914624285759e-01,4.569138580417155260e-01,4.061439920136955539e-01,2.209549962043337867e-01,2.663559229990035138e-01,6.289503630415792246e-02,3.250317662438410027e-01,4.515042907645910181e-02,4.882840307565423088e-01,5.555081270131111415e-01,2.956842089537481955e-01,1.777413961662056285e-01,4.447206445249944629e-02,2.612471567748507195e-01,3.471150340995280414e-01,1.416706164700884119e-01,1.642456010369229835e-01,1.192279380865012145e-01,1.486278973314024976e-01,1.544555542075029264e-01,3.250419663309865870e-01,3.713643308317831071e-01,1.058158467287174109e-01,4.330725945967195956e-01,2.634623469631153792e-01,1.235245860101604615e-01,3.310907893601915952e-01,1.082054494436048425e-01,1.667323775032610034e-01,3.402353037682484538e-01,5.469441159223783488e-01,1.703720383748413003e-01,2.952731811081867330e-01,1.449181999169194546e-01,0.000000000000000000e+00,0.000000000000000000e+00,0.000000000000000000e+00,0.000000000000000000e+00,0.000000000000000000e+00,0.000000000000000000e+00,0.000000000000000000e+00,0.000000000000000000e+00,0.000000000000000000e+00,0.000000000000000000e+00,0.000000000000000000e+00,0.000000000000000000e+00,0.000000000000000000e+00,0.000000000000000000e+00,0.000000000000000000e+00,0.000000000000000000e+00,0.000000000000000000e+00,0.000000000000000000e+00,0.000000000000000000e+00,0.000000000000000000e+00,0.000000000000000000e+00,0.000000000000000000e+00,0.000000000000000000e+00,0.000000000000000000e+00,0.000000000000000000e+00,0.000000000000000000e+00,0.000000000000000000e+00,0.000000000000000000e+00,0.000000000000000000e+00,0.000000000000000000e+00,0.000000000000000000e+00,0.000000000000000000e+00,0.000000000000000000e+00,0.000000000000000000e+00,0.000000000000000000e+00,0.000000000000000000e+00,0.000000000000000000e+00,0.000000000000000000e+00,0.000000000000000000e+00,0.000000000000000000e+00,0.000000000000000000e+00,0.000000000000000000e+00,0.000000000000000000e+00,0.000000000000000000e+00,0.000000000000000000e+00,0.000000000000000000e+00,0.000000000000000000e+00,0.000000000000000000e+00,0.000000000000000000e+00,0.000000000000000000e+00,0.000000000000000000e+00,0.000000000000000000e+00,0.000000000000000000e+00,0.000000000000000000e+00,0.000000000000000000e+00,0.000000000000000000e+00,0.000000000000000000e+00,0.000000000000000000e+00,0.000000000000000000e+00,0.000000000000000000e+00,0.000000000000000000e+00,0.000000000000000000e+00,0.000000000000000000e+00,0.000000000000000000e+00,0.000000000000000000e+00,0.000000000000000000e+00,0.000000000000000000e+00,0.000000000000000000e+00,0.000000000000000000e+00,0.000000000000000000e+00,0.000000000000000000e+00,0.000000000000000000e+00,0.000000000000000000e+00,0.000000000000000000e+00
2.103408347178170601e-01,1.330446894561076732e-01,1.964456527211398129e-01,3.788283072379130534e-01,6.063199583815805094e-02,5.154139186762657365e-01,2.430649952172380945e-01,1.013609894443605330e-02,1.194851398748091043e-02,5.592307305039521115e-01,3.872191176223799824e-01,2.220208427729950321e-02,4.057628085720518807e-01,8.630787561462685553e-02,9.241638557451878344e-02,2.537213244055110950e-01,3.461377099800298507e-01,8.083706724395442467e-02,1.100874322442061369e-02,6.162882411183272513e-01,5.880279917434425713e-02,9.206397153837117542e-02,2.917484770679152351e-01,2.929399721425094971e-01,1.736897749584654857e-02,2.208461293191696373e-02,1.636711473594119615e-01,5.002936783634563955e-01,1.629495376663478157e-01,1.129067445333870323e-01,1.585695346456560684e-01,9.943110305593313991e-02,5.917702931749148076e-01,1.996173790464683129e-01,2.446089043279799924e-01,7.966235379012905071e-02,2.785413415227642742e-01,1.647955159509305323e-02,3.242712581181090292e-01,3.367735655909647741e-01,6.264579033043010670e-02,5.325982983436540197e-01,2.103408347178170601e-01,1.330446894561076732e-01,1.964456527211398129e-01,3.788283072379130534e-01,6.063199583815805094e-02,5.154139186762657365e-01,2.430649952172380945e-01,1.013609894443605330e-02,1.194851398748091043e-02,5.592307305039521115e-01,3.872191176223799824e-01,2.220208427729950321e-02,4.057628085720518807e-01,8.630787561462685553e-02,9.241638557451878344e-02,2.537213244055110950e-01,3.461377099800298507e-01,8.083706724395442467e-02,1.100874322442061369e-02,6.162882411183272513e-01,5.880279917434425713e-02,9.206397153837117542e-02,2.917484770679152351e-01,2.929399721425094971e-01,1.736897749584654857e-02,2.208461293191696373e-02,1.636711473594119615e-01,5.002936783634563955e-01,1.629495376663478157e-01,1.129067445333870323e-01,2.737918206524178610e-01,1.369518855835325788e-01,2.354781555497318379e-01,3.557529271807335913e-01,1.008783623585795403e-01,4.777484693885991618e-01,2.538879233485958342e-01,4.650554435458811170e-02,2.183507016466576800e-01,5.335590191794794546e-01,3.896376671684709803e-01,3.961961617440778322e-02,3.801333245521454907e-01,1.369237449043556876e-01,6.427089745938927012e-02,2.151923320881906354e-01,3.880502708406977086e-01,1.862098149095551824e-01,1.148451744681142778e-01,5.717772083694555585e-01,7.038097441067424354e-02,1.638192066523508628e-01,2.711690939598131456e-01,2.881620775131590872e-01,3.754879209937016238e-02,1.006631230445445141e-01,1.945550785095139235e-01,5.118357796958696859e-01,2.198141495660393685e-01,9.476553528193897014e-02,2.068031794476896945e-01,1.315725466725237713e-01,5.471060807726095820e-01,2.571442291022605353e-01,2.244412340117572791e-01,1.530155003692371674e-01,2.718071404982433936e-01,1.729404848636373060e-01,3.287236977142917738e-01,3.143719991244470768e-01,6.762350637802129472e-02,5.003548310303960189e-01,2.737918206524178610e-01,1.369518855835325788e-01,2.354781555497318379e-01,3.557529271807335913e-01,1.008783623585795403e-01,4.777484693885991618e-01,2.538879233485958342e-01,4.650554435458811170e-02,2.183507016466576800e-01,5.335590191794794546e-01,3.896376671684709803e-01,3.961961617440778322e-02,3.801333245521454907e-01,1.369237449043556876e-01,6.427089745938927012e-02,2.151923320881906354e-01,3.880502708406977086e-01,1.862098149095551824e-01,1.148451744681142778e-01,5.717772083694555585e-01,7.038097441067424354e-02,1.638192066523508628e-01,2.711690939598131456e-01,2.881620775131590872e-01,3.754879209937016238e-02,1.006631230445445141e-01,1.945550785095139235e-01,5.118357796958696859e-01,2.198141495660393685e-01,9.476553528193897014e-02,3.866491574523635011e-01,1.496308389716978771e-01,3.017817463182338455e-01,2.918566961391951819e-01,1.594764690898802795e-01,3.780068850031375050e-01,2.832112561492898251e-01,9.905896739679011243e-02,4.016020132203500514e-01,4.561415263790293828e-01,3.899364841691653205e-01,8.542142898146670715e-02,3.097523397735302275e-01,2.174596917604907642e-01,7.744646304520103053e-02,1.096871766574897822e-01,4.613292128010417215e-01,3.241160840419599620e-01,2.116718206652230538e-01,4.504765109224738162e-01,1.007805793467110023e-01,2.603019395431893646e-01,2.343703563464610840e-01,2.742568085692686508e-01,8.555288984646636230e-02,1.810383865931218805e-01,2.570656814463809225e-01,5.186978219913811472e-01,3.150527821527279726e-01,4.550897128616524651e-02,2.815117340579653127e-01,2.133555240445015044e-01,4.256232391456354347e-01,3.498001720104435552e-01,1.823920168868678748e-01,2.446881423566254488e-01,2.463723653922096912e-01,2.899435550161779673e-01,3.378052128550653732e-01,2.534166918112480404e-01,7.312599046801153413e-02,4.082854018568314314e-01,3.866491574523635011e-01,1.496308389716978771e-01,3.017817463182338455e-01,2.918566961391951819e-01,1.594764690898802795e-01,3.780068850031375050e-01,2.832112561492898251e-01,9.905896739679011243e-02,4.016020132203500514e-01,4.561415263790293828e-01,3.899364841691653205e-01,8.542142898146670715e-02,3.097523397735302275e-01,2.174596917604907642e-01,7.744646304520103053e-02,1.096871766574897822e-01,4.613292128010417215e-01,3.241160840419599620e-01,2.116718206652230538e-01,4.504765109224738162e-01,1.007805793467110023e-01,2.603019395431893646e-01,2.343703563464610840e-01,2.742568085692686508e-01,8.555288984646636230e-02,1.810383865931218805e-01,2.570656814463809225e-01,5.186978219913811472e-01,3.150527821527279726e-01,4.550897128616524651e-02,4.761042878183214255e-01,1.738375771448055218e-01,3.377219483174406234e-01,2.018051855326194188e-01,1.991632844333642849e-01,2.580824471593147762e-01,3.223026615948890172e-01,1.558565902688673066e-01,5.221045270829783869e-01,3.287483771340722893e-01,3.737096525627643384e-01,1.508109999228954834e-01,2.110257656464147868e-01,2.805031231995541163e-01,2.020954917227038572e-01,5.347155740140496077e-02,4.949594210844796005e-01,4.309221255715067200e-01,2.784260428064244119e-01,2.858336208543537094e-01,1.451309075868237597e-01,3.176618119332936252e-01,2.470984518338623648e-01,2.528023817334061896e-01,1.537719431758597100e-01,2.298954294724202541e-01,3.091894423254388236e-01,4.740754008477054970e-01,3.827671928953967351e-01,2.395237843377559517e-02,3.178107897454081066e-01,3.181579601456361872e-01,2.612424151618316093e-01,4.000536046836491999e-01,1.703912024040782347e-01,2.907027526182083266e-01,1.926632091901470389e-01,3.188796024592358558e-01,3.403531206567527168e-01,1.714871218051557400e-01,7.512194136017652513e-02,2.713421160355057316e-01,4.761042878183214255e-01,1.738375771448055218e-01,3.377219483174406234e-01,2.018051855326194188e-01,1.991632844333642849e-01,2.580824471593147762e-01,3.223026615948890172e-01,1.558565902688673066e-01,5.221045270829783869e-01,3.287483771340722893e-01,3.737096525627643384e-01,1.508109999228954834e-01,2.110257656464147868e-01,2.805031231995541163e-01,2.020954917227038572e-01,5.347155740140496077e-02,4.949594210844796005e-01,4.309221255715067200e-01,2.784260428064244119e-01,2.858336208543537094e-01,1.451309075868237597e-01,3.176618119332936252e-01,2.470984518338623648e-01,2.528023817334061896e-01,1.537719431758597100e-01,2.298954294724202541e-01,3.091894423254388236e-01,4.740754008477054970e-01,3.827671928953967351e-01,2.395237843377559517e-02,5.175804570374483715e-01,2.121385830569637310e-01,3.225323520487424767e-01,1.064653399909532006e-01,2.105945657588134678e-01,1.948989698449940244e-01,3.587523830103353517e-01,2.037288886123373999e-01,5.630882490726046852e-01,1.615400627425093438e-01,3.303526649638428014e-01,2.228900188439807695e-01,1.019767720994745885e-01,3.089485571278393627e-01,3.333521759250272498e-01,2.068710475009780669e-01,4.599175055085000796e-01,4.980333915829043279e-01,3.092817250505456306e-01,1.257898030876903328e-01,1.974078804234032369e-01,3.237002812817805220e-01,3.255411207322702616e-01,2.270690626408050916e-01,2.297300694065699256e-01,2.343769217610895128e-01,3.214923987784651382e-01,3.618871893643370030e-01,4.020801061570105639e-01,9.434001038904549219e-02,2.975011381878697181e-01,4.156282386195576661e-01,9.969004382410992515e-02,3.816092134921260093e-01,2.066805176967778934e-01,2.773002475286522883e-01,1.076150752885979694e-01,2.723764669501108626e-01,3.224418505800853985e-01,9.630411970739256866e-02,9.930021924240091391e-02,1.272550302953920909e-01,5.175804570374483715e-01,2.121385830569637310e-01,3.225323520487424767e-01,1.064653399909532006e-01,2.105945657588134678e-01,1.948989698449940244e-01,3.587523830103353517e-01,2.037288886123373999e-01,5.630882490726046852e-01,1.615400627425093438e-01,3.303526649638428014e-01,2.228900188439807695e-01,1.019767720994745885e-01,3.089485571278393627e-01,3.333521759250272498e-01,2.068710475009780669e-01,4.599175055085000796e-01,4.980333915829043279e-01,3.092817250505456306e-01,1.257898030876903328e-01,1.974078804234032369e-01,3.237002812817805220e-01,3.255411207322702616e-01,2.270690626408050916e-01,2.297300694065699256e-01,2.343769217610895128e-01,3.214923987784651382e-01,3.618871893643370030e-01,4.020801061570105639e-01,9.434001038904549219e-02,5.083957931734084390e-01,2.629624951643100839e-01,2.598854788733357957e-01,3.616686791149966579e-02,1.949137955663773902e-01,2.208149656996627741e-01,3.793028302650858219e-01,2.292682990271201482e-01,5.222993167617376864e-01,3.113067537506729321e-02,2.593849354535470719e-01,2.854610061539309962e-01,1.402029928402661815e-02,2.947558169764926683e-01,4.255707955144150678e-01,3.382978711825200269e-01,3.648345520414646437e-01,5.300904377168685899e-01,3.067854591231543582e-01,5.709486402994620735e-02,2.447527658822769014e-01,2.857065429010617330e-01,4.119561801011902280e-01,2.019427659634255579e-01,2.939847799507230852e-01,1.887922510831684941e-01,2.750799563687832960e-01,2.322511238305716708e-01,3.735214010394930506e-01,1.577398228476782904e-01,2.298238392943918740e-01,4.778194480093393981e-01,2.081645299652355383e-02,2.959177481954218814e-01,2.374085706422057740e-01,2.104870935670931364e-01,6.498463520503354289e-03,2.556287789651960352e-01,2.723448982393353868e-01,6.723709496252566753e-02,1.604655314023351320e-01,1.391500758092176493e-01,5.083957931734084390e-01,2.629624951643100839e-01,2.598854788733357957e-01,3.616686791149966579e-02,1.949137955663773902e-01,2.208149656996627741e-01,3.793028302650858219e-01,2.292682990271201482e-01,5.222993167617376864e-01,3.113067537506729321e-02,2.593849354535470719e-01,2.854610061539309962e-01,1.402029928402661815e-02,2.947558169764926683e-01,4.255707955144150678e-01,3.382978711825200269e-01,3.648345520414646437e-01,5.300904377168685899e-01,3.067854591231543582e-01,5.709486402994620735e-02,2.447527658822769014e-01,2.857065429010617330e-01,4.119561801011902280e-01,2.019427659634255579e-01,2.939847799507230852e-01,1.887922510831684941e-01,2.750799563687832960e-01,2.322511238305716708e-01,3.735214010394930506e-01,1.577398228476782904e-01,4.589328814910312859e-01,3.186143950370213807e-01,1.721082716822918968e-01,4.977198723020509474e-02,1.632043257954153836e-01,2.455474816260946325e-01,3.733481972848090580e-01,2.253593247808682032e-01,4.120674591648468832e-01,1.998985743630211920e-01,1.711063439681669296e-01,3.230533342927088269e-01,1.233399265633129405e-01,2.391029906414575412e-01,4.500302498039103760e-01,4.136064731427241403e-01,2.506267925696696319e-01,5.364420349505995000e-01,2.802939311224918462e-01,8.850271482357498221e-02,2.689584263338410941e-01,2.252955451822780397e-01,4.640901745128309108e-01,1.822463262965269559e-01,3.238570856213531801e-01,1.002705163802093125e-01,1.655317567970558401e-01,2.503512773488002496e-01,3.153664034916949799e-01,2.109862729771538603e-01,1.516059832153012765e-01,4.878720918708172039e-01,5.800240962211201251e-02,1.644386262797502274e-01,2.207832572430407925e-01,1.160011478556892683e-01,1.115887044179679072e-01,3.772332253136195246e-01,1.849228397609376517e-01,7.631437803585501556e-02,2.357183025821065758e-01,2.712321269646781330e-01,4.589328814910312859e-01,3.186143950370213807e-01,1.721082716822918968e-01,4.977198723020509474e-02,1.632043257954153836e-01,2.455474816260946325e-01,3.733481972848090580e-01,2.253593247808682032e-01,4.120674591648468832e-01,1.998985743630211920e-01,1.711063439681669296e-01,3.230533342927088269e-01,1.233399265633129405e-01,2.391029906414575412e-01,4.500302498039103760e-01,4.136064731427241403e-01,2.506267925696696319e-01,5.364420349505995000e-01,2.802939311224918462e-01,8.850271482357498221e-02,2.689584263338410941e-01,2.252955451822780397e-01,4.640901745128309108e-01,1.822463262965269559e-01,3.238570856213531801e-01,1.002705163802093125e-01,1.655317567970558401e-01,2.503512773488002496e-01,3.153664034916949799e-01,2.109862729771538603e-01,3.869510848411366610e-01,3.666929199674348050e-01,1.095055979301753774e-01,6.672018931194953484e-02,1.365159485959241970e-01,2.155222403104570805e-01,3.367785878445764269e-01,1.942626411361692007e-01,2.569730710599624768e-01,3.266802298017884021e-01,8.372344685508516238e-02,3.264997954855669571e-01,2.460501050381527499e-01,1.544825007914232273e-01,3.964239264897193027e-01,4.171648574286080380e-01,1.898905432478056043e-01,5.222734586703124959e-01,2.422467148340735343e-01,6.783892281313350092e-02,2.527588551960157637e-01,1.728192074343010975e-01,4.721044920348471119e-01,1.696732499030622898e-01,2.994260536213879664e-01,6.852855549244965538e-02,8.752044495679308853e-03,3.912370749531628999e-01,2.645076729560609796e-01,2.563283505253901029e-01,1.378387215907701802e-01,4.452052858878674524e-01,2.609913496893545223e-02,4.753951582798499054e-02,1.476589276257246619e-01,7.518998544234567483e-02,2.026854518017079665e-01,5.387272262491756836e-01,6.429681891751588829e-02,7.132991337664257303e-02,2.976343936080494412e-01,3.747604531656792970e-01,3.869510848411366610e-01,3.666929199674348050e-01,1.095055979301753774e-01,6.672018931194953484e-02,1.365159485959241970e-01,2.155222403104570805e-01,3.367785878445764269e-01,1.942626411361692007e-01,2.569730710599624768e-01,3.266802298017884021e-01,8.372344685508516238e-02,3.264997954855669571e-01,2.460501050381527499e-01,1.544825007914232273e-01,3.964239264897193027e-01,4.171648574286080380e-01,1.898905432478056043e-01,5.222734586703124959e-01,2.422467148340735343e-01,6.783892281313350092e-02,2.527588551960157637e-01,1.728192074343010975e-01,4.721044920348471119e-01,1.696732499030622898e-01,2.994260536213879664e-01,6.852855549244965538e-02,8.752044495679308853e-03,3.912370749531628999e-01,2.645076729560609796e-01,2.563283505253901029e-01,3.116148160751627816e-01,3.932619153591936367e-01,1.385844896780160374e-01,6.638394330847374736e-02,1.332319482976347669e-01,1.419741391721197898e-01,2.762164512525208115e-01,1.465977550747258329e-01,9.546230740686900695e-02,3.811162618006300185e-01,1.980231081035757970e-02,2.996322183489463775e-01,3.733287148430488034e-01,7.324470128302522365e-02,2.748243546236048829e-01,3.506502845967837678e-01,2.107775592954030941e-01,4.844693686649740871e-01,2.031946094065532060e-01,2.868855598334396628e-02,1.870459925798151624e-01,1.529410962426409892e-01,4.534539107465935248e-01,1.614617606700690933e-01,2.106941406213455048e-01,1.964207484128830672e-01,1.728646475822187278e-01,4.923209155857773411e-01,2.621379057116037248e-01,2.915612638353297092e-01,1.922520425158479040e-01,3.650961706312575439e-01,1.074005701214057612e-01,1.367758255722436311e-01,6.522621524467948906e-02,1.380064441158688204e-01,2.539332669098908757e-01,6.385845060060646450e-01,7.701922874174892131e-02,4.586684632507215253e-02,3.241645097333655801e-01,4.207683179820835284e-01,3.116148160751627816e-01,3.932619153591936367e-01,1.385844896780160374e-01,6.638394330847374736e-02,1.332319482976347669e-01,1.419741391721197898e-01,2.762164512525208115e-01,1.465977550747258329e-01,9.546230740686900695e-02,3.811162618006300185e-01,1.980231081035757970e-02,2.996322183489463775e-01,3.733287148430488034e-01,7.324470128302522365e-02,2.748243546236048829e-01,3.506502845967837678e-01,2.107775592954030941e-01,4.844693686649740871e-01,2.031946094065532060e-01,2.868855598334396628e-02,1.870459925798151624e-01,1.529410962426409892e-01,4.534539107465935248e-01,1.614617606700690933e-01,2.106941406213455048e-01,1.964207484128830672e-01,1.728646475822187278e-01,4.923209155857773411e-01,2.621379057116037248e-01,2.915612638353297092e-01,2.476035033834739219e-01,3.865602476134202825e-01,2.050704843269282318e-01,9.729005684004127241e-02,1.427008490242796801e-01,1.366595583335728781e-01,2.149281285348746962e-01,9.699053821460169866e-02,1.032761650008986315e-01,3.527579252858246139e-01,1.536964033391654064e-02,2.659906390727531100e-01,4.869943174545385833e-01,8.437103981026208843e-02,1.147965546099935369e-01,2.317879693163976407e-01,2.332609275459596176e-01,4.163802137868088948e-01,1.680063097192240340e-01,1.263657596175778997e-01,7.744064924794452631e-02,1.619952293992881209e-01,4.405377709306253498e-01,1.533187205472473225e-01,7.263831065699723200e-02,3.253680997380585249e-01,3.323328199156971308e-01,4.961797074909948813e-01,3.042363502119062035e-01,3.048494226383632877e-01,2.400891930350406989e-01,2.732745289847535730e-01,2.511551488265732490e-01,2.238878984107013914e-01,1.613298936309026099e-01,1.856621989731282174e-01,2.548131155014010663e-01,6.305980912112404413e-01,2.183918619039540709e-01,4.276835164681487556e-02,3.024953344463290894e-01,4.034597486335245176e-01,2.476035033834739219e-01,3.865602476134202825e-01,2.050704843269282318e-01,9.729005684004127241e-02,1.427008490242796801e-01,1.366595583335728781e-01,2.149281285348746962e-01,9.699053821460169866e-02,1.032761650008986315e-01,3.527579252858246139e-01,1.536964033391654064e-02,2.659906390727531100e-01,4.869943174545385833e-01,8.437103981026208843e-02,1.147965546099935369e-01,2.317879693163976407e-01,2.332609275459596176e-01,4.163802137868088948e-01,1.680063097192240340e-01,1.263657596175778997e-01,7.744064924794452631e-02,1.619952293992881209e-01,4.405377709306253498e-01,1.533187205472473225e-01,7.263831065699723200e-02,3.253680997380585249e-01,3.323328199156971308e-01,4.961797074909948813e-01,3.042363502119062035e-01,3.048494226383632877e-01,2.009431447216187550e-01,3.405972681047818584e-01,2.628905225788690236e-01,1.765871443192725820e-01,1.403551843183675485e-01,2.520838618735371517e-01,1.937517891162144346e-01,6.262895265382451004e-02,2.197210166462474079e-01,2.519255546844983984e-01,1.467522431830660216e-02,2.632030403607998337e-01,5.633359660881247510e-01,1.386135878407367961e-01,7.671250059159673285e-02,8.981703946266694771e-02,2.122783355481204226e-01,3.177701740723899437e-01,1.364902134795437094e-01,2.247603803353023788e-01,7.262016015990778450e-02,1.847298643682952768e-01,4.507461166229984606e-01,1.433096245433956306e-01,1.545739324529921965e-01,4.196569263942643291e-01,4.354329590641710657e-01,4.012997147060994307e-01,3.502674946618814511e-01,2.800668434739541635e-01,2.570079905059884373e-01,2.000874364321300614e-01,3.855459820669356885e-01,2.571097799849320076e-01,2.970562461228038464e-01,1.955877819302901666e-01,2.070023460258777759e-01,5.128256494596520332e-01,3.391279891376061673e-01,8.779115980535788510e-02,2.327328671123908288e-01,3.315403523416310949e-01,2.009431447216187550e-01,3.405972681047818584e-01,2.628905225788690236e-01,1.765871443192725820e-01,1.403551843183675485e-01,2.520838618735371517e-01,1.937517891162144346e-01,6.262895265382451004e-02,2.197210166462474079e-01,2.519255546844983984e-01,1.467522431830660216e-02,2.632030403607998337e-01,5.633359660881247510e-01,1.386135878407367961e-01,7.671250059159673285e-02,8.981703946266694771e-02,2.122783355481204226e-01,3.177701740723899437e-01,1.364902134795437094e-01,2.247603803353023788e-01,7.262016015990778450e-02,1.847298643682952768e-01,4.507461166229984606e-01,1.433096245433956306e-01,1.545739324529921965e-01,4.196569263942643291e-01,4.354329590641710657e-01,4.012997147060994307e-01,3.502674946618814511e-01,2.800668434739541635e-01,1.694895530647112514e-01,2.581284235528380488e-01,3.041973476496296902e-01,2.759421305590053497e-01,1.181609472064529681e-01,3.677998136652628758e-01,2.242131905539530290e-01,7.242709979553725586e-02,2.972419851479101705e-01,1.154873340993027714e-01,7.441757038712790151e-02,2.999775703243266478e-01,5.843366901408351133e-01,1.668152510981830705e-01,2.101483149207336587e-01,4.865976476250977178e-02,1.556002898723267414e-01,2.059368522606231655e-01,1.079997898596405936e-01,2.856266687426350370e-01,2.090828409575689328e-01,2.167053280188979691e-01,4.652832457923169462e-01,1.325007589057127233e-01,3.573191118113928089e-01,4.635655802965610861e-01,4.593782011120015052e-01,2.593630788866312931e-01,3.725944949099584402e-01,2.068720450238485942e-01,2.497433349385670687e-01,1.790635343993823292e-01,4.707396353759611407e-01,2.424512723997428731e-01,3.991742589804255226e-01,1.963403777778351678e-01,1.228445691048522942e-01,3.319879061488724137e-01,4.214592556829950265e-01,1.372010816273517564e-01,1.312008302773482737e-01,2.250074078424620649e-01,1.694895530647112514e-01,2.581284235528380488e-01,3.041973476496296902e-01,2.759421305590053497e-01,1.181609472064529681e-01,3.677998136652628758e-01,2.242131905539530290e-01,7.242709979553725586e-02,2.972419851479101705e-01,1.154873340993027714e-01,7.441757038712790151e-02,2.999775703243266478e-01,5.843366901408351133e-01,1.668152510981830705e-01,2.101483149207336587e-01,4.865976476250977178e-02,1.556002898723267414e-01,2.059368522606231655e-01,1.079997898596405936e-01,2.856266687426350370e-01,2.090828409575689328e-01,2.167053280188979691e-01,4.652832457923169462e-01,1.325007589057127233e-01,3.573191118113928089e-01,4.635655802965610861e-01,4.593782011120015052e-01,2.593630788866312931e-01,3.725944949099584402e-01,2.068720450238485942e-01,1.486278973314024976e-01,1.544555542075029264e-01,3.250419663309865870e-01,3.713643308317831071e-01,1.058158467287174109e-01,4.330725945967195956e-01,2.634623469631153792e-01,1.235245860101604615e-01,3.310907893601915952e-01,1.082054494436048425e-01,1.667323775032610034e-01,3.402353037682484538e-01,5.469441159223783488e-01,1.703720383748413003e-01,2.952731811081867330e-01,1.449181999169194546e-01,1.079857903939302616e-01,1.392719922142254263e-01,8.490702612992218068e-02,2.973217918957348216e-01,3.150386992169886824e-01,2.512161904696689207e-01,4.506691922004825157e-01,1.219797811086483774e-01,5.366958914624285759e-01,4.569138580417155260e-01,4.061439920136955539e-01,2.209549962043337867e-01,3.623467865639138918e-01,8.876841629256043698e-02,2.405264533457863729e-01,2.235776400539732922e-01,4.830826620646077596e-01,2.113724252480134735e-01,4.494115522796723328e-01,2.405678314904857451e-01,2.694952218562272211e-02,2.293243919994522040e-01,4.556944207974311101e-01,1.800182622802733168e-01,6.413379778632812001e-02,1.102792037204317344e-01,1.486278973314024976e-01,1.544555542075029264e-01,3.250419663309865870e-01,3.713643308317831071e-01,1.058158467287174109e-01,4.330725945967195956e-01,2.634623469631153792e-01,1.235245860101604615e-01,3.310907893601915952e-01,1.082054494436048425e-01,1.667323775032610034e-01,3.402353037682484538e-01,5.469441159223783488e-01,1.703720383748413003e-01,2.952731811081867330e-01,1.449181999169194546e-01,1.079857903939302616e-01,1.392719922142254263e-01,8.490702612992218068e-02,2.973217918957348216e-01,3.150386992169886824e-01,2.512161904696689207e-01,4.506691922004825157e-01,1.219797811086483774e-01,5.366958914624285759e-01,4.569138580417155260e-01,4.061439920136955539e-01,2.209549962043337867e-01,3.623467865639138918e-01,8.876841629256043698e-02,0.000000000000000000e+00,0.000000000000000000e+00,0.000000000000000000e+00,0.000000000000000000e+00,0.000000000000000000e+00,0.000000000000000000e+00,0.000000000000000000e+00,0.000000000000000000e+00,0.000000000000000000e+00,0.000000000000000000e+00,0.000000000000000000e+00,0.000000000000000000e+00,0.000000000000000000e+00,0.000000000000000000e+00,0.000000000000000000e+00,0.000000000000000000e+00,0.000000000000000000e+00,0.000000000000000000e+00,0.000000000000000000e+00,0.000000000000000000e+00,0.000000000000000000e+00,0.000000000000000000e+00,0.000000000000000000e+00,0.000000000000000000e+00,0.000000000000000000e+00,0.000000000000000000e+00,0.000000000000000000e+00,0.000000000000000000e+00,0.000000000000000000e+00,0.000000000000000000e+00,0.000000000000000000e+00,0.000000000000000000e+00,0.000000000000000000e+00,0.000000000000000000e+00,0.000000000000000000e+00,0.000000000000000000e+00,0.000000000000000000e+00,0.000000000000000000e+00,0.000000000000000000e+00,0.000000000000000000e+00,0.000000000000000000e+00,0.000000000000000000e+00,0.000000000000000000e+00,0.000000000000000000e+00,0.000000000000000000e+00,0.000000000000000000e+00,0.000000000000000000e+00,0.000000000000000000e+00,0.000000000000000000e+00,0.000000000000000000e+00,0.000000000000000000e+00,0.000000000000000000e+00,0.000000000000000000e+00,0.000000000000000000e+00,0.000000000000000000e+00,0.000000000000000000e+00,0.000000000000000000e+00,0.000000000000000000e+00,0.000000000000000000e+00,0.000000000000000000e+00,0.000000000000000000e+00,0.000000000000000000e+00,0.000000000000000000e+00,0.000000000000000000e+00,0.000000000000000000e+00,0.000000000000000000e+00,0.000000000000000000e+00,0.000000000000000000e+00,0.000000000000000000e+00,0.000000000000000000e+00,0.000000000000000000e+00,0.000000000000000000e+00,0.000000000000000000e+00,0.000000000000000000e+00
8.630787561462685553e-02,9.241638557451878344e-02,2.537213244055110950e-01,3.461377099800298507e-01,8.083706724395442467e-02,1.100874322442061369e-02,6.162882411183272513e-01,5.880279917434425713e-02,9.206397153837117542e-02,2.917484770679152351e-01,2.929399721425094971e-01,1.736897749584654857e-02,2.208461293191696373e-02,1.636711473594119615e-01,5.002936783634563955e-01,1.629495376663478157e-01,1.129067445333870323e-01,1.585695346456560684e-01,9.943110305593313991e-02,5.917702931749148076e-01,1.996173790464683129e-01,2.446089043279799924e-01,7.966235379012905071e-02,2.785413415227642742e-01,1.647955159509305323e-02,3.242712581181090292e-01,3.367735655909647741e-01,6.264579033043010670e-02,5.325982983436540197e-01,1.000000000000000000e+00,5.055127624225947969e-01,9.491684706908992686e-02,5.721525784960311833e-01,1.789256406383728515e-01,3.801876185201966685e-01,2.751346725066706744e-01,3.789289969625266735e-02,2.613737434761449485e-01,6.138213428652938841e-01,2.514725872224739534e-01,2.663411032237493759e-01,7.093591099028344338e-02,1.474265384550839941e-01,8.630787561462685553e-02,9.241638557451878344e-02,2.537213244055110950e-01,3.461377099800298507e-01,8.083706724395442467e-02,1.100874322442061369e-02,6.162882411183272513e-01,5.880279917434425713e-02,9.206397153837117542e-02,2.917484770679152351e-01,2.929399721425094971e-01,1.736897749584654857e-02,2.208461293191696373e-02,1.636711473594119615e-01,5.002936783634563955e-01,1.629495376663478157e-01,1.129067445333870323e-01,1.585695346456560684e-01,9.943110305593313991e-02,5.917702931749148076e-01,1.996173790464683129e-01,2.446089043279799924e-01,7.966235379012905071e-02,2.785413415227642742e-01,1.647955159509305323e-02,3.242712581181090292e-01,3.367735655909647741e-01,6.264579033043010670e-02,5.325982983436540197e-01,1.369237449043556876e-01,6.427089745938927012e-02,2.151923320881906354e-01,3.880502708406977086e-01,1.862098149095551824e-01,1.148451744681142778e-01,5.717772083694555585e-01,7.038097441067424354e-02,1.638192066523508628e-01,2.711690939598131456e-01,2.881620775131590872e-01,3.754879209937016238e-02,1.006631230445445141e-01,1.945550785095139235e-01,5.118357796958696859e-01,2.198141495660393685e-01,9.476553528193897014e-02,2.068031794476896945e-01,1.315725466725237713e-01,5.471060807726095820e-01,2.571442291022605353e-01,2.244412340117572791e-01,1.530155003692371674e-01,2.718071404982433936e-01,1.729404848636373060e-01,3.287236977142917738e-01,3.143719991244470768e-01,6.762350637802129472e-02,5.003548310303960189e-01,9.408415666915382891e-01,4.971196220102123142e-01,1.507073825972008174e-01,5.190608228509900890e-01,1.544465293904154490e-01,3.750369038349929962e-01,2.637730534710406860e-01,2.884356627159727349e-02,2.583129997652777732e-01,6.042718803103355185e-01,2.539372181839873455e-01,2.538260965375678246e-01,1.262523278824844442e-01,1.810499336780852231e-01,1.369237449043556876e-01,6.427089745938927012e-02,2.151923320881906354e-01,3.880502708406977086e-01,1.862098149095551824e-01,1.148451744681142778e-01,5.717772083694555585e-01,7.038097441067424354e-02,1.638192066523508628e-01,2.711690939598131456e-01,2.881620775131590872e-01,3.754879209937016238e-02,1.006631230445445141e-01,1.945550785095139235e-01,5.118357796958696859e-01,2.198141495660393685e-01,9.476553528193897014e-02,2.068031794476896945e-01,1.315725466725237713e-01,5.471060807726095820e-01,2.571442291022605353e-01,2.244412340117572791e-01,1.530155003692371674e-01,2.718071404982433936e-01,1.729404848636373060e-01,3.287236977142917738e-01,3.143719991244470768e-01,6.762350637802129472e-02,5.003548310303960189e-01,2.174596917604907642e-01,7.744646304520103053e-02,1.096871766574897822e-01,4.613292128010417215e-01,3.241160840419599620e-01,2.116718206652230538e-01,4.504765109224738162e-01,1.007805793467110023e-01,2.603019395431893646e-01,2.343703563464610840e-01,2.742568085692686508e-01,8.555288984646636230e-02,1.810383865931218805e-01,2.570656814463809225e-01,5.186978219913811472e-01,3.150527821527279726e-01,4.550897128616524651e-02,2.815117340579653127e-01,2.133555240445015044e-01,4.256232391456354347e-01,3.498001720104435552e-01,1.823920168868678748e-01,2.446881423566254488e-01,2.463723653922096912e-01,2.899435550161779673e-01,3.378052128550653732e-01,2.534166918112480404e-01,7.312599046801153413e-02,4.082854018568314314e-01,7.759855932148231883e-01,4.725681971291186834e-01,2.521806472144285105e-01,3.812339193126552672e-01,1.133307083953774969e-01,3.553160242752844700e-01,2.297080658832582889e-01,1.670828852391354272e-02,2.482214242106709767e-01,5.758220901916467627e-01,2.584741205204702519e-01,2.383705839281579364e-01,2.118498961426969474e-01,2.337907014300217023e-01,2.174596917604907642e-01,7.744646304520103053e-02,1.096871766574897822e-01,4.613292128010417215e-01,3.241160840419599620e-01,2.116718206652230538e-01,4.504765109224738162e-01,1.007805793467110023e-01,2.603019395431893646e-01,2.343703563464610840e-01,2.742568085692686508e-01,8.555288984646636230e-02,1.810383865931218805e-01,2.570656814463809225e-01,5.186978219913811472e-01,3.150527821527279726e-01,4.550897128616524651e-02,2.815117340579653127e-01,2.133555240445015044e-01,4.256232391456354347e-01,3.498001720104435552e-01,1.823920168868678748e-01,2.446881423566254488e-01,2.463723653922096912e-01,2.899435550161779673e-01,3.378052128550653732e-01,2.534166918112480404e-01,7.312599046801153413e-02,4.082854018568314314e-01,2.805031231995541163e-01,2.020954917227038572e-01,5.347155740140496077e-02,4.949594210844796005e-01,4.309221255715067200e-01,2.784260428064244119e-01,2.858336208543537094e-01,1.451309075868237597e-01,3.176618119332936252e-01,2.470984518338623648e-01,2.528023817334061896e-01,1.537719431758597100e-01,2.298954294724202541e-01,3.091894423254388236e-01,4.740754008477054970e-01,3.827671928953967351e-01,2.395237843377559517e-02,3.178107897454081066e-01,3.181579601456361872e-01,2.612424151618316093e-01,4.000536046836491999e-01,1.703912024040782347e-01,2.907027526182083266e-01,1.926632091901470389e-01,3.188796024592358558e-01,3.403531206567527168e-01,1.714871218051557400e-01,7.512194136017652513e-02,2.713421160355057316e-01,5.400895256615051432e-01,4.335059289253395676e-01,3.539795049975394958e-01,2.428989934629099956e-01,1.555796422689579850e-01,3.106403567242595476e-01,1.792569526882715203e-01,3.605858298938410117e-02,2.301844323538023429e-01,5.293028328341352617e-01,2.587928820413257225e-01,2.671014059071028512e-01,2.864548028760514620e-01,2.545172033251547616e-01,2.805031231995541163e-01,2.020954917227038572e-01,5.347155740140496077e-02,4.949594210844796005e-01,4.309221255715067200e-01,2.784260428064244119e-01,2.858336208543537094e-01,1.451309075868237597e-01,3.176618119332936252e-01,2.470984518338623648e-01,2.528023817334061896e-01,1.537719431758597100e-01,2.298954294724202541e-01,3.091894423254388236e-01,4.740754008477054970e-01,3.827671928953967351e-01,2.395237843377559517e-02,3.178107897454081066e-01,3.181579601456361872e-01,2.612424151618316093e-01,4.000536046836491999e-01,1.703912024040782347e-01,2.907027526182083266e-01,1.926632091901470389e-01,3.188796024592358558e-01,3.403531206567527168e-01,1.714871218051557400e-01,7.512194136017652513e-02,2.713421160355057316e-01,3.089485571278393627e-01,3.333521759250272498e-01,2.068710475009780669e-01,4.599175055085000796e-01,4.980333915829043279e-01,3.092817250505456306e-01,1.257898030876903328e-01,1.974078804234032369e-01,3.237002812817805220e-01,3.255411207322702616e-01,2.270690626408050916e-01,2.297300694065699256e-01,2.343769217610895128e-01,3.214923987784651382e-01,3.618871893643370030e-01,4.020801061570105639e-01,9.434001038904549219e-02,2.975011381878697181e-01,4.156282386195576661e-01,9.969004382410992515e-02,3.816092134921260093e-01,2.066805176967778934e-01,2.773002475286522883e-01,1.076150752885979694e-01,2.723764669501108626e-01,3.224418505800853985e-01,9.630411970739256866e-02,9.930021924240091391e-02,1.272550302953920909e-01,2.812477428533085022e-01,3.819668199549151044e-01,4.331090286996011063e-01,2.749489376322914458e-01,2.546681989859966300e-01,2.310935081687157666e-01,1.443562057373274921e-01,5.131425913645763087e-02,2.066827250824564144e-01,4.668785736380614559e-01,2.493517939160207197e-01,3.416014296021693819e-01,3.398357237804215947e-01,2.292380278650092695e-01,3.089485571278393627e-01,3.333521759250272498e-01,2.068710475009780669e-01,4.599175055085000796e-01,4.980333915829043279e-01,3.092817250505456306e-01,1.257898030876903328e-01,1.974078804234032369e-01,3.237002812817805220e-01,3.255411207322702616e-01,2.270690626408050916e-01,2.297300694065699256e-01,2.343769217610895128e-01,3.214923987784651382e-01,3.618871893643370030e-01,4.020801061570105639e-01,9.434001038904549219e-02,2.975011381878697181e-01,4.156282386195576661e-01,9.969004382410992515e-02,3.816092134921260093e-01,2.066805176967778934e-01,2.773002475286522883e-01,1.076150752885979694e-01,2.723764669501108626e-01,3.224418505800853985e-01,9.630411970739256866e-02,9.930021924240091391e-02,1.272550302953920909e-01,2.947558169764926683e-01,4.255707955144150678e-01,3.382978711825200269e-01,3.648345520414646437e-01,5.300904377168685899e-01,3.067854591231543582e-01,5.709486402994620735e-02,2.447527658822769014e-01,2.857065429010617330e-01,4.119561801011902280e-01,2.019427659634255579e-01,2.939847799507230852e-01,1.887922510831684941e-01,2.750799563687832960e-01,2.322511238305716708e-01,3.735214010394930506e-01,1.577398228476782904e-01,2.298238392943918740e-01,4.778194480093393981e-01,2.081645299652355383e-02,2.959177481954218814e-01,2.374085706422057740e-01,2.104870935670931364e-01,6.498463520503354289e-03,2.556287789651960352e-01,2.723448982393353868e-01,6.723709496252566753e-02,1.604655314023351320e-01,1.391500758092176493e-01,5.357364709640501793e-02,3.197734328845703855e-01,4.714402699460013002e-01,4.095339661298472711e-01,3.314509566118544748e-01,1.188651874856042900e-01,1.741532483885974703e-01,4.454823385223307536e-02,1.845020372884330073e-01,3.931701043862101397e-01,2.279421085094174848e-01,4.153949793871269947e-01,3.677817743729749900e-01,1.819712333314122132e-01,2.947558169764926683e-01,4.255707955144150678e-01,3.382978711825200269e-01,3.648345520414646437e-01,5.300904377168685899e-01,3.067854591231543582e-01,5.709486402994620735e-02,2.447527658822769014e-01,2.857065429010617330e-01,4.119561801011902280e-01,2.019427659634255579e-01,2.939847799507230852e-01,1.887922510831684941e-01,2.750799563687832960e-01,2.322511238305716708e-01,3.735214010394930506e-01,1.577398228476782904e-01,2.298238392943918740e-01,4.778194480093393981e-01,2.081645299652355383e-02,2.959177481954218814e-01,2.374085706422057740e-01,2.104870935670931364e-01,6.498463520503354289e-03,2.556287789651960352e-01,2.723448982393353868e-01,6.723709496252566753e-02,1.604655314023351320e-01,1.391500758092176493e-01,2.391029906414575412e-01,4.500302498039103760e-01,4.136064731427241403e-01,2.506267925696696319e-01,5.364420349505995000e-01,2.802939311224918462e-01,8.850271482357498221e-02,2.689584263338410941e-01,2.252955451822780397e-01,4.640901745128309108e-01,1.822463262965269559e-01,3.238570856213531801e-01,1.002705163802093125e-01,1.655317567970558401e-01,2.503512773488002496e-01,3.153664034916949799e-01,2.109862729771538603e-01,1.516059832153012765e-01,4.878720918708172039e-01,5.800240962211201251e-02,1.644386262797502274e-01,2.207832572430407925e-01,1.160011478556892683e-01,1.115887044179679072e-01,3.772332253136195246e-01,1.849228397609376517e-01,7.631437803585501556e-02,2.357183025821065758e-01,2.712321269646781330e-01,1.266279023996561837e-01,2.491890983908373325e-01,4.623552814496688645e-01,4.969465183686957999e-01,3.486392752270657813e-01,8.348499543693631286e-02,2.403260316454163548e-01,3.421047222544493227e-02,1.699418425800739152e-01,3.166184406927537998e-01,1.961747748026155258e-01,4.488754135480271246e-01,3.694562702081229943e-01,1.929418752713024376e-01,2.391029906414575412e-01,4.500302498039103760e-01,4.136064731427241403e-01,2.506267925696696319e-01,5.364420349505995000e-01,2.802939311224918462e-01,8.850271482357498221e-02,2.689584263338410941e-01,2.252955451822780397e-01,4.640901745128309108e-01,1.822463262965269559e-01,3.238570856213531801e-01,1.002705163802093125e-01,1.655317567970558401e-01,2.503512773488002496e-01,3.153664034916949799e-01,2.109862729771538603e-01,1.516059832153012765e-01,4.878720918708172039e-01,5.800240962211201251e-02,1.644386262797502274e-01,2.207832572430407925e-01,1.160011478556892683e-01,1.115887044179679072e-01,3.772332253136195246e-01,1.849228397609376517e-01,7.631437803585501556e-02,2.357183025821065758e-01,2.712321269646781330e-01,1.544825007914232273e-01,3.964239264897193027e-01,4.171648574286080380e-01,1.898905432478056043e-01,5.222734586703124959e-01,2.422467148340735343e-01,6.783892281313350092e-02,2.527588551960157637e-01,1.728192074343010975e-01,4.721044920348471119e-01,1.696732499030622898e-01,2.994260536213879664e-01,6.852855549244965538e-02,8.752044495679308853e-03,3.912370749531628999e-01,2.645076729560609796e-01,2.563283505253901029e-01,1.378387215907701802e-01,4.452052858878674524e-01,2.609913496893545223e-02,4.753951582798499054e-02,1.476589276257246619e-01,7.518998544234567483e-02,2.026854518017079665e-01,5.387272262491756836e-01,6.429681891751588829e-02,7.132991337664257303e-02,2.976343936080494412e-01,3.747604531656792970e-01,2.123158689432085022e-01,1.778101906681211763e-01,4.189221015918248026e-01,4.954963720408979699e-01,2.927191347804625199e-01,2.225900504905491406e-01,2.901313950519808782e-01,8.294839506718923450e-02,1.610824535018677839e-01,2.502842479542427556e-01,1.588048435589787533e-01,4.224432171285816828e-01,3.468771060467075729e-01,2.899487306948402843e-01,1.544825007914232273e-01,3.964239264897193027e-01,4.171648574286080380e-01,1.898905432478056043e-01,5.222734586703124959e-01,2.422467148340735343e-01,6.783892281313350092e-02,2.527588551960157637e-01,1.728192074343010975e-01,4.721044920348471119e-01,1.696732499030622898e-01,2.994260536213879664e-01,6.852855549244965538e-02,8.752044495679308853e-03,3.912370749531628999e-01,2.645076729560609796e-01,2.563283505253901029e-01,1.378387215907701802e-01,4.452052858878674524e-01,2.609913496893545223e-02,4.753951582798499054e-02,1.476589276257246619e-01,7.518998544234567483e-02,2.026854518017079665e-01,5.387272262491756836e-01,6.429681891751588829e-02,7.132991337664257303e-02,2.976343936080494412e-01,3.747604531656792970e-01,7.324470128302522365e-02,2.748243546236048829e-01,3.506502845967837678e-01,2.107775592954030941e-01,4.844693686649740871e-01,2.031946094065532060e-01,2.868855598334396628e-02,1.870459925798151624e-01,1.529410962426409892e-01,4.534539107465935248e-01,1.614617606700690933e-01,2.106941406213455048e-01,1.964207484128830672e-01,1.728646475822187278e-01,4.923209155857773411e-01,2.621379057116037248e-01,2.915612638353297092e-01,1.922520425158479040e-01,3.650961706312575439e-01,1.074005701214057612e-01,1.367758255722436311e-01,6.522621524467948906e-02,1.380064441158688204e-01,2.539332669098908757e-01,6.385845060060646450e-01,7.701922874174892131e-02,4.586684632507215253e-02,3.241645097333655801e-01,4.207683179820835284e-01,2.210659684542325143e-01,1.355474536371488459e-01,3.771551442753152683e-01,4.117230241025798820e-01,1.760842386149480410e-01,3.521056288433575543e-01,3.017652503105541228e-01,1.534421203077146467e-01,1.483939222552581594e-01,2.082919163911743088e-01,1.229695604919104762e-01,3.357481133967022413e-01,3.051316878584064973e-01,4.004326154580187813e-01,7.324470128302522365e-02,2.748243546236048829e-01,3.506502845967837678e-01,2.107775592954030941e-01,4.844693686649740871e-01,2.031946094065532060e-01,2.868855598334396628e-02,1.870459925798151624e-01,1.529410962426409892e-01,4.534539107465935248e-01,1.614617606700690933e-01,2.106941406213455048e-01,1.964207484128830672e-01,1.728646475822187278e-01,4.923209155857773411e-01,2.621379057116037248e-01,2.915612638353297092e-01,1.922520425158479040e-01,3.650961706312575439e-01,1.074005701214057612e-01,1.367758255722436311e-01,6.522621524467948906e-02,1.380064441158688204e-01,2.539332669098908757e-01,6.385845060060646450e-01,7.701922874174892131e-02,4.586684632507215253e-02,3.241645097333655801e-01,4.207683179820835284e-01,8.437103981026208843e-02,1.147965546099935369e-01,2.317879693163976407e-01,2.332609275459596176e-01,4.163802137868088948e-01,1.680063097192240340e-01,1.263657596175778997e-01,7.744064924794452631e-02,1.619952293992881209e-01,4.405377709306253498e-01,1.533187205472473225e-01,7.263831065699723200e-02,3.253680997380585249e-01,3.323328199156971308e-01,4.961797074909948813e-01,3.042363502119062035e-01,3.048494226383632877e-01,2.400891930350406989e-01,2.732745289847535730e-01,2.511551488265732490e-01,2.238878984107013914e-01,1.613298936309026099e-01,1.856621989731282174e-01,2.548131155014010663e-01,6.305980912112404413e-01,2.183918619039540709e-01,4.276835164681487556e-02,3.024953344463290894e-01,4.034597486335245176e-01,1.808449354695905731e-01,1.687045365671632491e-01,3.768459021231868600e-01,2.832126603512488683e-01,1.087483387679235997e-01,4.219178411016655250e-01,2.848720352610497053e-01,2.137994990597914258e-01,1.241164807307481854e-01,1.920229206397678634e-01,9.807638745159288907e-02,2.065288657273421646e-01,2.536404288248027550e-01,4.749712321802856962e-01,8.437103981026208843e-02,1.147965546099935369e-01,2.317879693163976407e-01,2.332609275459596176e-01,4.163802137868088948e-01,1.680063097192240340e-01,1.263657596175778997e-01,7.744064924794452631e-02,1.619952293992881209e-01,4.405377709306253498e-01,1.533187205472473225e-01,7.263831065699723200e-02,3.253680997380585249e-01,3.323328199156971308e-01,4.961797074909948813e-01,3.042363502119062035e-01,3.048494226383632877e-01,2.400891930350406989e-01,2.732745289847535730e-01,2.511551488265732490e-01,2.238878984107013914e-01,1.613298936309026099e-01,1.856621989731282174e-01,2.548131155014010663e-01,6.305980912112404413e-01,2.183918619039540709e-01,4.276835164681487556e-02,3.024953344463290894e-01,4.034597486335245176e-01,1.386135878407367961e-01,7.671250059159673285e-02,8.981703946266694771e-02,2.122783355481204226e-01,3.177701740723899437e-01,1.364902134795437094e-01,2.247603803353023788e-01,7.262016015990778450e-02,1.847298643682952768e-01,4.507461166229984606e-01,1.433096245433956306e-01,1.545739324529921965e-01,4.196569263942643291e-01,4.354329590641710657e-01,4.012997147060994307e-01,3.502674946618814511e-01,2.800668434739541635e-01,2.570079905059884373e-01,2.000874364321300614e-01,3.855459820669356885e-01,2.571097799849320076e-01,2.970562461228038464e-01,1.955877819302901666e-01,2.070023460258777759e-01,5.128256494596520332e-01,3.391279891376061673e-01,8.779115980535788510e-02,2.327328671123908288e-01,3.315403523416310949e-01,1.435340931307238777e-01,2.463010042216794981e-01,4.148087206748540812e-01,1.770009462652276100e-01,2.566558634838011499e-01,4.060153110449902791e-01,2.820317039907549450e-01,2.461684748261934730e-01,9.057847763100920768e-02,1.825622425477032851e-01,9.296082059241572715e-02,8.396656772166893878e-02,2.086891086719435129e-01,4.914850254115332717e-01,1.386135878407367961e-01,7.671250059159673285e-02,8.981703946266694771e-02,2.122783355481204226e-01,3.177701740723899437e-01,1.364902134795437094e-01,2.247603803353023788e-01,7.262016015990778450e-02,1.847298643682952768e-01,4.507461166229984606e-01,1.433096245433956306e-01,1.545739324529921965e-01,4.196569263942643291e-01,4.354329590641710657e-01,4.012997147060994307e-01,3.502674946618814511e-01,2.800668434739541635e-01,2.570079905059884373e-01,2.000874364321300614e-01,3.855459820669356885e-01,2.571097799849320076e-01,2.970562461228038464e-01,1.955877819302901666e-01,2.070023460258777759e-01,5.128256494596520332e-01,3.391279891376061673e-01,8.779115980535788510e-02,2.327328671123908288e-01,3.315403523416310949e-01,1.668152510981830705e-01,2.101483149207336587e-01,4.865976476250977178e-02,1.556002898723267414e-01,2.059368522606231655e-01,1.079997898596405936e-01,2.856266687426350370e-01,2.090828409575689328e-01,2.167053280188979691e-01,4.652832457923169462e-01,1.325007589057127233e-01,3.573191118113928089e-01,4.635655802965610861e-01,4.593782011120015052e-01,2.593630788866312931e-01,3.725944949099584402e-01,2.068720450238485942e-01,2.497433349385670687e-01,1.790635343993823292e-01,4.707396353759611407e-01,2.424512723997428731e-01,3.991742589804255226e-01,1.963403777778351678e-01,1.228445691048522942e-01,3.319879061488724137e-01,4.214592556829950265e-01,1.372010816273517564e-01,1.312008302773482737e-01,2.250074078424620649e-01,1.528169452528178873e-01,3.190395638644639154e-01,4.498839844918835484e-01,1.644323498877991174e-01,4.263632788717493516e-01,3.060283759214050825e-01,3.292228313663498329e-01,2.461011450551172930e-01,7.435901215816546894e-02,1.586764414776736798e-01,1.052955443024628374e-01,1.302386728471636723e-01,1.921701291190578975e-01,4.488031181901748767e-01,1.668152510981830705e-01,2.101483149207336587e-01,4.865976476250977178e-02,1.556002898723267414e-01,2.059368522606231655e-01,1.079997898596405936e-01,2.856266687426350370e-01,2.090828409575689328e-01,2.167053280188979691e-01,4.652832457923169462e-01,1.325007589057127233e-01,3.573191118113928089e-01,4.635655802965610861e-01,4.593782011120015052e-01,2.593630788866312931e-01,3.725944949099584402e-01,2.068720450238485942e-01,2.497433349385670687e-01,1.790635343993823292e-01,4.707396353759611407e-01,2.424512723997428731e-01,3.991742589804255226e-01,1.963403777778351678e-01,1.228445691048522942e-01,3.319879061488724137e-01,4.214592556829950265e-01,1.372010816273517564e-01,1.312008302773482737e-01,2.250074078424620649e-01,1.703720383748413003e-01,2.952731811081867330e-01,1.449181999169194546e-01,1.079857903939302616e-01,1.392719922142254263e-01,8.490702612992218068e-02,2.973217918957348216e-01,3.150386992169886824e-01,2.512161904696689207e-01,4.506691922004825157e-01,1.219797811086483774e-01,5.366958914624285759e-01,4.569138580417155260e-01,4.061439920136955539e-01,2.209549962043337867e-01,3.623467865639138918e-01,8.876841629256043698e-02,2.405264533457863729e-01,2.235776400539732922e-01,4.830826620646077596e-01,2.113724252480134735e-01,4.494115522796723328e-01,2.405678314904857451e-01,2.694952218562272211e-02,2.293243919994522040e-01,4.556944207974311101e-01,1.800182622802733168e-01,6.413379778632812001e-02,1.102792037204317344e-01,1.798327509762530085e-01,3.596383119697619257e-01,4.509560458500433966e-01,1.870707982263533353e-01,5.504587714824551448e-01,1.971703604693135492e-01,3.979578104277640693e-01,2.276729648618222857e-01,1.141103161082221151e-01,1.117503348552955217e-01,1.226431995190897378e-01,2.257401991337098235e-01,2.116451872062768413e-01,3.658541091433131776e-01,1.703720383748413003e-01,2.952731811081867330e-01,1.449181999169194546e-01,1.079857903939302616e-01,1.392719922142254263e-01,8.490702612992218068e-02,2.973217918957348216e-01,3.150386992169886824e-01,2.512161904696689207e-01,4.506691922004825157e-01,1.219797811086483774e-01,5.366958914624285759e-01,4.569138580417155260e-01,4.061439920136955539e-01,2.209549962043337867e-01,3.623467865639138918e-01,8.876841629256043698e-02,2.405264533457863729e-01,2.235776400539732922e-01,4.830826620646077596e-01,2.113724252480134735e-01,4.494115522796723328e-01,2.405678314904857451e-01,2.694952218562272211e-02,2.293243919994522040e-01,4.556944207974311101e-01,1.800182622802733168e-01,6.413379778632812001e-02,1.102792037204317344e-01,0.000000000000000000e+00,0.000000000000000000e+00,0.000000000000000000e+00,0.000000000000000000e+00,0.000000000000000000e+00,0.000000000000000000e+00,0.000000000000000000e+00,0.000000000000000000e+00,0.000000000000000000e+00,0.000000000000000000e+00,0.000000000000000000e+00,0.000000000000000000e+00,0.000000000000000000e+00,0.000000000000000000e+00,0.000000000000000000e+00,0.000000000000000000e+00,0.000000000000000000e+00,0.000000000000000000e+00,0.000000000000000000e+00,0.000000000000000000e+00,0.000000000000000000e+00,0.000000000000000000e+00,0.000000000000000000e+00,0.000000000000000000e+00,0.000000000000000000e+00,0.000000000000000000e+00,0.000000000000000000e+00,0.000000000000000000e+00,0.000000000000000000e+00,0.000000000000000000e+00,0.000000000000000000e+00,0.000000000000000000e+00,0.000000000000000000e+00,0.000000000000000000e+00,0.000000000000000000e+00,0.000000000000000000e+00,0.000000000000000000e+00,0.000000000000000000e+00,0.000000000000000000e+00,0.000000000000000000e+00,0.000000000000000000e+00,0.000000000000000000e+00,0.000000000000000000e+00,0.000000000000000000e+00,0.000000000000000000e+00,0.000000000000000000e+00,0.000000000000000000e+00,0.000000000000000000e+00,0.000000000000000000e+00,0.000000000000000000e+00,0.000000000000000000e+00,0.000000000000000000e+00,0.000000000000000000e+00,0.000000000000000000e+00,0.000000000000000000e+00,0.000000000000000000e+00,0.000000000000000000e+00,0.000000000000000000e+00,0.000000000000000000e+00,0.000000000000000000e+00,0.000000000000000000e+00,0.000000000000000000e+00,0.000000000000000000e+00,0.000000000000000000e+00,0.000000000000000000e+00,0.000000000000000000e+00,0.000000000000000000e+00,0.000000000000000000e+00,0.000000000000000000e+00,0.000000000000000000e+00,0.000000000000000000e+00,0.000000000000000000e+00,0.000000000000000000e+00,0.000000000000000000e+00
