3.873799208890563173e-01,4.503107929930307285e-01,3.639856846863815942e-01,5.646072706724429846e-01,4.846863816161235405e-01,1.760030137502354430e-01,2.758711621774345701e-01,3.164626106611414524e-01,9.860614051610472330e-02,3.537012620079110770e-01,3.049350160105481211e-01,1.255792051233753925e-01,8.617442079487662443e-02,3.680730834432096588e-01,1.000000000000000000e+00,8.176681107553211703e-02,1.226596345827839496e-01,1.411188547749105404e-01,5.166132981729139040e-01,3.318327368619325424e-01,4.762478809568657101e-01,8.169146731964588293e-02,2.139762667168958535e-02,3.700696929741947860e-01,5.118478056131098297e-01,1.164437747221699071e-01,1.555283480881521907e-01,6.829911471086833052e-02,1.294029007346016169e-02,5.944622339423619728e-01,8.745526464494254859e-02,2.273686193256733712e-01,5.127142588058014594e-02,6.686758334902994649e-01,3.697494820116782599e-02,3.873799208890563173e-01,4.503107929930307285e-01,3.639856846863815942e-01,5.646072706724429846e-01,4.846863816161235405e-01,1.760030137502354430e-01,2.758711621774345701e-01,3.164626106611414524e-01,9.860614051610472330e-02,3.537012620079110770e-01,3.049350160105481211e-01,1.255792051233753925e-01,8.617442079487662443e-02,3.680730834432096588e-01,1.000000000000000000e+00,8.176681107553211703e-02,1.226596345827839496e-01,1.411188547749105404e-01,5.166132981729139040e-01,3.318327368619325424e-01,4.762478809568657101e-01,8.169146731964588293e-02,2.139762667168958535e-02,3.700696929741947860e-01,5.118478056131098297e-01,1.164437747221699071e-01,1.555283480881521907e-01,6.829911471086833052e-02,1.294029007346016169e-02,5.944622339423619728e-01,8.745526464494254859e-02,2.273686193256733712e-01,5.127142588058014594e-02,6.686758334902994649e-01,3.697494820116782599e-02,3.873799208890563173e-01,4.503107929930307285e-01,3.713117802094390574e-01,4.481235972827717351e-01,3.893453888186890199e-01,5.665079741763490162e-01,4.550308244195209739e-01,2.017771861230851227e-01,3.494250476073363920e-01,3.100627087602663701e-01,1.359892123152907917e-01,3.540063114596713745e-01,2.983642247303629480e-01,1.153316606274260303e-01,7.431879050009597421e-02,4.137138221773455915e-01,9.358715945564368699e-01,1.244516705228461695e-01,1.564137217235547772e-01,1.801174470121321147e-01,5.087571037617933944e-01,2.968570417650390758e-01,4.798533695166997126e-01,9.266187312356136130e-02,5.963161493009130898e-02,3.774734968268450008e-01,5.477814025897467243e-01,1.162661787360536603e-01,1.037444099762311472e-01,1.738403759688740002e-01,1.180049007408359302e-01,5.886859984824927006e-01,8.706415403024241051e-02,2.442166630300668939e-01,2.694487273383494030e-01,6.562489151254464748e-01,1.041220724346943460e-01,3.713117802094390574e-01,4.481235972827717351e-01,3.893453888186890199e-01,5.665079741763490162e-01,4.550308244195209739e-01,2.017771861230851227e-01,3.494250476073363920e-01,3.100627087602663701e-01,1.359892123152907917e-01,3.540063114596713745e-01,2.983642247303629480e-01,1.153316606274260303e-01,7.431879050009597421e-02,4.137138221773455915e-01,9.358715945564368699e-01,1.244516705228461695e-01,1.564137217235547772e-01,1.801174470121321147e-01,5.087571037617933944e-01,2.968570417650390758e-01,4.798533695166997126e-01,9.266187312356136130e-02,5.963161493009130898e-02,3.774734968268450008e-01,5.477814025897467243e-01,1.162661787360536603e-01,1.037444099762311472e-01,1.738403759688740002e-01,1.180049007408359302e-01,5.886859984824927006e-01,8.706415403024241051e-02,2.442166630300668939e-01,2.694487273383494030e-01,6.562489151254464748e-01,1.041220724346943460e-01,3.713117802094390574e-01,4.481235972827717351e-01,3.250684319614640660e-01,4.325519149882444681e-01,4.408680229664865280e-01,5.650934323025390560e-01,3.750331440443296915e-01,2.534375216908776873e-01,4.568618005504913593e-01,2.834510642882196452e-01,2.153032845554463393e-01,3.567907451454990220e-01,2.803120442620492536e-01,9.346246900530401358e-02,4.756025067743355206e-02,4.834942214616719802e-01,7.634981592788024907e-01,1.765070842295190789e-01,2.084478283870888626e-01,2.378704661352554206e-01,4.889372424947012741e-01,2.047900068452339073e-01,4.842669264035948662e-01,1.201917049389584213e-01,1.799451868440761493e-01,3.935583868932387430e-01,6.037724739019553200e-01,1.471876807715896684e-01,4.047363928915447689e-02,2.896079518129272556e-01,2.254926380063487779e-01,5.862089074295474544e-01,1.021230243808149141e-01,2.597336405794760661e-01,4.686214576890328498e-01,6.130222813682588701e-01,2.179827471464075850e-01,3.250684319614640660e-01,4.325519149882444681e-01,4.408680229664865280e-01,5.650934323025390560e-01,3.750331440443296915e-01,2.534375216908776873e-01,4.568618005504913593e-01,2.834510642882196452e-01,2.153032845554463393e-01,3.567907451454990220e-01,2.803120442620492536e-01,9.346246900530401358e-02,4.756025067743355206e-02,4.834942214616719802e-01,7.634981592788024907e-01,1.765070842295190789e-01,2.084478283870888626e-01,2.378704661352554206e-01,4.889372424947012741e-01,2.047900068452339073e-01,4.842669264035948662e-01,1.201917049389584213e-01,1.799451868440761493e-01,3.935583868932387430e-01,6.037724739019553200e-01,1.471876807715896684e-01,4.047363928915447689e-02,2.896079518129272556e-01,2.254926380063487779e-01,5.862089074295474544e-01,1.021230243808149141e-01,2.597336405794760661e-01,4.686214576890328498e-01,6.130222813682588701e-01,2.179827471464075850e-01,3.250684319614640660e-01,4.325519149882444681e-01,2.568782204437686789e-01,3.866108030824172981e-01,4.786471449648089238e-01,5.443893245235962297e-01,2.706258233967432369e-01,2.969662822763177723e-01,4.862040882254806129e-01,2.230558812170248817e-01,3.021273586023891511e-01,3.661948288500603832e-01,2.562308795137699380e-01,8.293817357013333336e-02,5.475486946303011193e-02,4.887163147908075156e-01,5.408271657628777040e-01,1.928042092445889644e-01,2.306840767126165925e-01,2.602989179124962082e-01,4.644821987381650419e-01,1.005453846468135071e-01,4.746913978608461870e-01,1.550287834721184033e-01,3.436072111661357953e-01,4.029339056976026234e-01,5.996620959116895078e-01,2.299951199990074857e-01,2.250324250390159653e-01,3.434674597496633619e-01,3.119506521441750557e-01,6.091902868273666449e-01,1.521511200532815467e-01,2.250398505743815281e-01,5.593831063278571492e-01,5.272781757360884836e-01,3.442930997470121102e-01,2.568782204437686789e-01,3.866108030824172981e-01,4.786471449648089238e-01,5.443893245235962297e-01,2.706258233967432369e-01,2.969662822763177723e-01,4.862040882254806129e-01,2.230558812170248817e-01,3.021273586023891511e-01,3.661948288500603832e-01,2.562308795137699380e-01,8.293817357013333336e-02,5.475486946303011193e-02,4.887163147908075156e-01,5.408271657628777040e-01,1.928042092445889644e-01,2.306840767126165925e-01,2.602989179124962082e-01,4.644821987381650419e-01,1.005453846468135071e-01,4.746913978608461870e-01,1.550287834721184033e-01,3.436072111661357953e-01,4.029339056976026234e-01,5.996620959116895078e-01,2.299951199990074857e-01,2.250324250390159653e-01,3.434674597496633619e-01,3.119506521441750557e-01,6.091902868273666449e-01,1.521511200532815467e-01,2.250398505743815281e-01,5.593831063278571492e-01,5.272781757360884836e-01,3.442930997470121102e-01,2.568782204437686789e-01,3.866108030824172981e-01,1.884940135088933044e-01,3.026033964735165283e-01,4.814049969709481291e-01,4.899751335702071664e-01,1.827408697822337502e-01,3.215397959342007894e-01,4.038851075261059020e-01,1.248700331802748420e-01,3.709265247929018905e-01,3.843609468003065244e-01,2.347925059419899152e-01,9.204134297472429949e-02,1.100893206474861663e-01,3.947614777247770435e-01,3.608040774280356078e-01,1.920878196882924160e-01,2.098047659828131128e-01,2.428722583958151660e-01,4.383510631505466715e-01,1.025464265710845646e-01,4.363022840628492105e-01,1.892401800084725361e-01,5.029094999598752169e-01,3.883498017541835434e-01,4.985359159690755937e-01,3.304516804490912896e-01,4.010602071698227689e-01,3.225342018874098882e-01,3.644005341658941854e-01,6.473882475802776870e-01,2.249613428043336083e-01,1.333267094699710220e-01,5.230261878472223236e-01,3.948266519315069001e-01,4.493654799139514822e-01,1.884940135088933044e-01,3.026033964735165283e-01,4.814049969709481291e-01,4.899751335702071664e-01,1.827408697822337502e-01,3.215397959342007894e-01,4.038851075261059020e-01,1.248700331802748420e-01,3.709265247929018905e-01,3.843609468003065244e-01,2.347925059419899152e-01,9.204134297472429949e-02,1.100893206474861663e-01,3.947614777247770435e-01,3.608040774280356078e-01,1.920878196882924160e-01,2.098047659828131128e-01,2.428722583958151660e-01,4.383510631505466715e-01,1.025464265710845646e-01,4.363022840628492105e-01,1.892401800084725361e-01,5.029094999598752169e-01,3.883498017541835434e-01,4.985359159690755937e-01,3.304516804490912896e-01,4.010602071698227689e-01,3.225342018874098882e-01,3.644005341658941854e-01,6.473882475802776870e-01,2.249613428043336083e-01,1.333267094699710220e-01,5.230261878472223236e-01,3.948266519315069001e-01,4.493654799139514822e-01,1.884940135088933044e-01,3.026033964735165283e-01,1.609711771468665675e-01,1.918361409447973953e-01,4.491811579236055785e-01,3.970386269283230352e-01,1.502015945198076907e-01,3.463342225447426648e-01,2.239532490502295359e-01,4.283414391605896987e-02,3.997455892060768901e-01,4.067747350352396984e-01,2.222349190481421877e-01,1.008790785101189857e-01,1.763927869296728623e-01,2.140223525774973823e-01,3.094815303938627249e-01,2.285035617436741995e-01,1.603567053037454337e-01,2.203639638405795187e-01,4.063747720305231348e-01,1.594250509442043939e-01,3.603121930313183396e-01,2.170406757897159755e-01,6.137316571213579097e-01,3.406387380602881598e-01,3.196730085740137062e-01,4.131939376781526008e-01,5.130093937582979047e-01,2.398915457906624082e-01,3.744906183776369746e-01,6.614992061776533427e-01,2.978675830752776643e-01,1.286370054022555054e-01,3.797846239703249194e-01,2.371273820276450228e-01,5.014817893723996223e-01,1.609711771468665675e-01,1.918361409447973953e-01,4.491811579236055785e-01,3.970386269283230352e-01,1.502015945198076907e-01,3.463342225447426648e-01,2.239532490502295359e-01,4.283414391605896987e-02,3.997455892060768901e-01,4.067747350352396984e-01,2.222349190481421877e-01,1.008790785101189857e-01,1.763927869296728623e-01,2.140223525774973823e-01,3.094815303938627249e-01,2.285035617436741995e-01,1.603567053037454337e-01,2.203639638405795187e-01,4.063747720305231348e-01,1.594250509442043939e-01,3.603121930313183396e-01,2.170406757897159755e-01,6.137316571213579097e-01,3.406387380602881598e-01,3.196730085740137062e-01,4.131939376781526008e-01,5.130093937582979047e-01,2.398915457906624082e-01,3.744906183776369746e-01,6.614992061776533427e-01,2.978675830752776643e-01,1.286370054022555054e-01,3.797846239703249194e-01,2.371273820276450228e-01,5.014817893723996223e-01,1.609711771468665675e-01,1.918361409447973953e-01,1.861656135339647133e-01,9.418690590869796542e-02,3.965775355198851160e-01,2.768329249782520152e-01,1.499652613423313463e-01,4.124521525659129439e-01,8.204787771411585495e-03,1.588026738564577434e-01,3.771682897175979710e-01,4.216869982797460392e-01,2.143951399806689195e-01,1.027262464015564619e-01,2.444959989566521663e-01,4.105442596938011640e-02,3.213922476540213569e-01,3.030212390330406791e-01,1.426741758906973911e-01,2.382704201855815329e-01,3.638936900967543187e-01,1.621055891697117113e-01,2.472060030519279694e-01,2.367968156553075521e-01,6.476878599634380285e-01,2.729110933647730386e-01,1.984393599709235456e-01,4.556512408244743351e-01,5.262317012470643096e-01,1.456242472239875907e-01,3.459795471284133339e-01,6.211127330046400941e-01,3.498831652678036086e-01,2.975985369956286042e-01,2.166974180253510296e-01,1.734164064034456054e-01,4.898558563506259511e-01,1.861656135339647133e-01,9.418690590869796542e-02,3.965775355198851160e-01,2.768329249782520152e-01,1.499652613423313463e-01,4.124521525659129439e-01,8.204787771411585495e-03,1.588026738564577434e-01,3.771682897175979710e-01,4.216869982797460392e-01,2.143951399806689195e-01,1.027262464015564619e-01,2.444959989566521663e-01,4.105442596938011640e-02,3.213922476540213569e-01,3.030212390330406791e-01,1.426741758906973911e-01,2.382704201855815329e-01,3.638936900967543187e-01,1.621055891697117113e-01,2.472060030519279694e-01,2.367968156553075521e-01,6.476878599634380285e-01,2.729110933647730386e-01,1.984393599709235456e-01,4.556512408244743351e-01,5.262317012470643096e-01,1.456242472239875907e-01,3.459795471284133339e-01,6.211127330046400941e-01,3.498831652678036086e-01,2.975985369956286042e-01,2.166974180253510296e-01,1.734164064034456054e-01,4.898558563506259511e-01,1.861656135339647133e-01,9.418690590869796542e-02,2.153139289361780395e-01,9.646309734681830783e-02,3.430439578373459253e-01,1.768943861375778526e-01,1.345560636870179738e-01,5.333751393844170519e-01,2.301509915581987087e-01,2.767098569447958289e-01,3.092200069993689127e-01,4.143532297120177676e-01,1.988215934780930283e-01,1.144652121685257873e-01,3.128299874894653887e-01,2.317441490060865583e-01,2.896903000665922434e-01,3.580474644276681606e-01,2.087083950379038655e-01,2.804085900770578732e-01,3.141391072942099072e-01,9.674459979522179176e-02,1.135410139491032783e-01,2.528716966967072821e-01,5.999132466742304048e-01,2.414656430594111503e-01,3.422117964803939039e-01,4.497559994052640064e-01,4.374720230356458073e-01,1.538604314526993977e-01,3.017995443459516314e-01,5.300527957801773882e-01,3.643962145128362140e-01,4.660004376853045804e-01,2.674376240518814285e-01,3.091728799431888164e-01,4.413652083758987099e-01,2.153139289361780395e-01,9.646309734681830783e-02,3.430439578373459253e-01,1.768943861375778526e-01,1.345560636870179738e-01,5.333751393844170519e-01,2.301509915581987087e-01,2.767098569447958289e-01,3.092200069993689127e-01,4.143532297120177676e-01,1.988215934780930283e-01,1.144652121685257873e-01,3.128299874894653887e-01,2.317441490060865583e-01,2.896903000665922434e-01,3.580474644276681606e-01,2.087083950379038655e-01,2.804085900770578732e-01,3.141391072942099072e-01,9.674459979522179176e-02,1.135410139491032783e-01,2.528716966967072821e-01,5.999132466742304048e-01,2.414656430594111503e-01,3.422117964803939039e-01,4.497559994052640064e-01,4.374720230356458073e-01,1.538604314526993977e-01,3.017995443459516314e-01,5.300527957801773882e-01,3.643962145128362140e-01,4.660004376853045804e-01,2.674376240518814285e-01,3.091728799431888164e-01,4.413652083758987099e-01,2.153139289361780395e-01,9.646309734681830783e-02,2.144265519299775880e-01,1.318985718194226331e-01,3.018045150278260702e-01,2.028691365153654502e-01,1.106790388216917081e-01,6.725768156254690044e-01,3.852477485681288227e-01,3.541867643447798031e-01,2.251172720372134617e-01,3.728862989057262767e-01,1.662565272012422324e-01,1.441915055105414400e-01,3.794598856579436963e-01,3.729814268986847980e-01,2.084642014403441379e-01,3.454783532768916920e-01,3.021051807141894030e-01,2.931415310016381448e-01,2.683410247403459903e-01,4.216326325477806614e-02,1.022822498614813086e-01,2.736349673103789515e-01,4.896663371848189450e-01,3.010193594986628196e-01,5.261560725023841645e-01,4.027096692643709619e-01,2.857700470681771021e-01,2.316883233464183400e-01,2.812088895564012758e-01,4.327860286177461213e-01,3.328584257765113130e-01,5.715565999338183545e-01,4.457043410533703676e-01,4.686163548500388298e-01,4.232539017147510241e-01,2.144265519299775880e-01,1.318985718194226331e-01,3.018045150278260702e-01,2.028691365153654502e-01,1.106790388216917081e-01,6.725768156254690044e-01,3.852477485681288227e-01,3.541867643447798031e-01,2.251172720372134617e-01,3.728862989057262767e-01,1.662565272012422324e-01,1.441915055105414400e-01,3.794598856579436963e-01,3.729814268986847980e-01,2.084642014403441379e-01,3.454783532768916920e-01,3.021051807141894030e-01,2.931415310016381448e-01,2.683410247403459903e-01,4.216326325477806614e-02,1.022822498614813086e-01,2.736349673103789515e-01,4.896663371848189450e-01,3.010193594986628196e-01,5.261560725023841645e-01,4.027096692643709619e-01,2.857700470681771021e-01,2.316883233464183400e-01,2.812088895564012758e-01,4.327860286177461213e-01,3.328584257765113130e-01,5.715565999338183545e-01,4.457043410533703676e-01,4.686163548500388298e-01,4.232539017147510241e-01,2.144265519299775880e-01,1.318985718194226331e-01,1.806836157333055470e-01,1.183642584504441403e-01,2.743534290154091004e-01,3.108720422156971419e-01,1.378540528838415602e-01,7.772520262864637264e-01,4.352488336287951287e-01,3.829188977252341308e-01,1.803829582535916021e-01,2.934508971473707151e-01,1.197579610814795137e-01,1.698527389674659716e-01,4.386180157448938410e-01,4.085886248379249630e-01,1.690960526705517220e-01,2.461810576288265273e-01,3.780025513480548827e-01,2.444838091492329835e-01,2.337747731010237084e-01,1.772252408454951800e-01,2.452522210441234751e-01,3.037355658850746098e-01,3.544015551565754540e-01,3.989417382046994698e-01,6.290831697064317440e-01,3.352299800433776733e-01,1.987074764992123876e-01,2.706581991756439876e-01,3.019802470408993189e-01,3.904288810271028809e-01,2.585272064458672969e-01,5.848792957583508478e-01,5.686408924253182340e-01,5.792376474720650759e-01,4.770918291760921082e-01,1.806836157333055470e-01,1.183642584504441403e-01,2.743534290154091004e-01,3.108720422156971419e-01,1.378540528838415602e-01,7.772520262864637264e-01,4.352488336287951287e-01,3.829188977252341308e-01,1.803829582535916021e-01,2.934508971473707151e-01,1.197579610814795137e-01,1.698527389674659716e-01,4.386180157448938410e-01,4.085886248379249630e-01,1.690960526705517220e-01,2.461810576288265273e-01,3.780025513480548827e-01,2.444838091492329835e-01,2.337747731010237084e-01,1.772252408454951800e-01,2.452522210441234751e-01,3.037355658850746098e-01,3.544015551565754540e-01,3.989417382046994698e-01,6.290831697064317440e-01,3.352299800433776733e-01,1.987074764992123876e-01,2.706581991756439876e-01,3.019802470408993189e-01,3.904288810271028809e-01,2.585272064458672969e-01,5.848792957583508478e-01,5.686408924253182340e-01,5.792376474720650759e-01,4.770918291760921082e-01,1.806836157333055470e-01,1.183642584504441403e-01,1.397107916174927245e-01,5.887033956973587723e-02,2.565524525066727457e-01,4.036481439675813077e-01,2.111508850692023487e-01,8.041559765927114301e-01,3.729147593724029264e-01,3.776530129744807285e-01,1.992257553650290947e-01,1.853988298096090059e-01,8.154200759036711599e-02,1.667739654375438307e-01,4.812990732550646578e-01,3.309348651961926402e-01,2.384225830488019560e-01,9.703307236034235117e-02,4.204644957901997326e-01,1.357602783574505811e-01,2.014052192501027128e-01,3.066548631522663104e-01,3.776145577932896180e-01,3.377207711492833386e-01,2.414510520618158018e-01,4.648360828485296192e-01,6.246563924163126558e-01,2.758580916744025058e-01,2.976664976570302934e-01,2.378499938272906900e-01,3.322218911458455493e-01,4.002419124813462181e-01,1.612360563847128336e-01,5.046134879879816681e-01,5.907198989805662048e-01,6.205796033007251467e-01,5.493126907846130891e-01,1.397107916174927245e-01,5.887033956973587723e-02,2.565524525066727457e-01,4.036481439675813077e-01,2.111508850692023487e-01,8.041559765927114301e-01,3.729147593724029264e-01,3.776530129744807285e-01,1.992257553650290947e-01,1.853988298096090059e-01,8.154200759036711599e-02,1.667739654375438307e-01,4.812990732550646578e-01,3.309348651961926402e-01,2.384225830488019560e-01,9.703307236034235117e-02,4.204644957901997326e-01,1.357602783574505811e-01,2.014052192501027128e-01,3.066548631522663104e-01,3.776145577932896180e-01,3.377207711492833386e-01,2.414510520618158018e-01,4.648360828485296192e-01,6.246563924163126558e-01,2.758580916744025058e-01,2.976664976570302934e-01,2.378499938272906900e-01,3.322218911458455493e-01,4.002419124813462181e-01,1.612360563847128336e-01,5.046134879879816681e-01,5.907198989805662048e-01,6.205796033007251467e-01,5.493126907846130891e-01,1.397107916174927245e-01,5.887033956973587723e-02,1.396948779281229902e-01,9.140311670026048108e-02,2.457894723477156707e-01,4.488765826736566544e-01,2.768000728918380005e-01,7.317830914356493466e-01,2.247364731134375015e-01,3.727182150957460416e-01,2.211341115212984709e-01,9.345023558721678170e-02,8.303992879974672614e-02,1.324532310510700139e-01,4.988631521704910421e-01,1.652483398724550745e-01,3.060315953319334703e-01,2.139820000964308133e-01,4.294059538459463754e-01,8.520749753806199089e-02,1.549492232509926681e-01,3.916378497036429041e-01,4.691651155098996440e-01,3.633737074432329961e-01,1.955132729728192575e-01,4.607506766322686520e-01,5.244199444120799525e-01,2.462720963590260825e-01,4.112447208939683518e-01,1.327635055916146500e-01,3.341365984237948394e-01,3.912885749784283385e-01,1.016379507630573581e-01,3.607496743677947038e-01,5.125561836484218148e-01,5.935814836695262331e-01,5.642235227133028941e-01,1.396948779281229902e-01,9.140311670026048108e-02,2.457894723477156707e-01,4.488765826736566544e-01,2.768000728918380005e-01,7.317830914356493466e-01,2.247364731134375015e-01,3.727182150957460416e-01,2.211341115212984709e-01,9.345023558721678170e-02,8.303992879974672614e-02,1.324532310510700139e-01,4.988631521704910421e-01,1.652483398724550745e-01,3.060315953319334703e-01,2.139820000964308133e-01,4.294059538459463754e-01,8.520749753806199089e-02,1.549492232509926681e-01,3.916378497036429041e-01,4.691651155098996440e-01,3.633737074432329961e-01,1.955132729728192575e-01,4.607506766322686520e-01,5.244199444120799525e-01,2.462720963590260825e-01,4.112447208939683518e-01,1.327635055916146500e-01,3.341365984237948394e-01,3.912885749784283385e-01,1.016379507630573581e-01,3.607496743677947038e-01,5.125561836484218148e-01,5.935814836695262331e-01,5.642235227133028941e-01,1.396948779281229902e-01,9.140311670026048108e-02,1.829386684548945652e-01,2.033003992234692914e-01,2.380676413038398109e-01,4.413021938184766291e-01,3.049290925627319293e-01,5.677141347525817006e-01,7.935614620462796975e-02,3.951957070741400901e-01,2.011136049738677101e-01,1.382103268341029201e-01,1.005332824242027856e-01,1.305319576256511183e-01,4.870871621442303123e-01,7.422871456683520497e-02,3.091277206767433783e-01,4.438315105713113162e-01,4.153585692535886609e-01,2.378815878988714827e-01,9.445294885170234245e-02,4.161311924496368109e-01,5.050190031058870987e-01,3.702335304307334263e-01,2.161880467928320726e-01,3.759568254967149969e-01,3.653616258958914398e-01,2.423777396882827451e-01,4.493571102258102079e-01,3.971741196303685967e-02,2.963828916039042971e-01,3.161673526295584735e-01,1.486718885148081426e-01,2.264229144462091003e-01,3.624224265675939916e-01,5.149763879002933198e-01,4.813283314835081761e-01,1.829386684548945652e-01,2.033003992234692914e-01,2.380676413038398109e-01,4.413021938184766291e-01,3.049290925627319293e-01,5.677141347525817006e-01,7.935614620462796975e-02,3.951957070741400901e-01,2.011136049738677101e-01,1.382103268341029201e-01,1.005332824242027856e-01,1.305319576256511183e-01,4.870871621442303123e-01,7.422871456683520497e-02,3.091277206767433783e-01,4.438315105713113162e-01,4.153585692535886609e-01,2.378815878988714827e-01,9.445294885170234245e-02,4.161311924496368109e-01,5.050190031058870987e-01,3.702335304307334263e-01,2.161880467928320726e-01,3.759568254967149969e-01,3.653616258958914398e-01,2.423777396882827451e-01,4.493571102258102079e-01,3.971741196303685967e-02,2.963828916039042971e-01,3.161673526295584735e-01,1.486718885148081426e-01,2.264229144462091003e-01,3.624224265675939916e-01,5.149763879002933198e-01,4.813283314835081761e-01,1.829386684548945652e-01,2.033003992234692914e-01,0.000000000000000000e+00,0.000000000000000000e+00,0.000000000000000000e+00,0.000000000000000000e+00,0.000000000000000000e+00,0.000000000000000000e+00,0.000000000000000000e+00,0.000000000000000000e+00,0.000000000000000000e+00,0.000000000000000000e+00,0.000000000000000000e+00,0.000000000000000000e+00,0.000000000000000000e+00,0.000000000000000000e+00,0.000000000000000000e+00,0.000000000000000000e+00,0.000000000000000000e+00,0.000000000000000000e+00,0.000000000000000000e+00,0.000000000000000000e+00,0.000000000000000000e+00,0.000000000000000000e+00,0.000000000000000000e+00,0.000000000000000000e+00,0.000000000000000000e+00,0.000000000000000000e+00,0.000000000000000000e+00,0.000000000000000000e+00,0.000000000000000000e+00,0.000000000000000000e+00,0.000000000000000000e+00,0.000000000000000000e+00,0.000000000000000000e+00,0.000000000000000000e+00,0.000000000000000000e+00,0.000000000000000000e+00,0.000000000000000000e+00,0.000000000000000000e+00,0.000000000000000000e+00,0.000000000000000000e+00,0.000000000000000000e+00,0.000000000000000000e+00,0.000000000000000000e+00,0.000000000000000000e+00,0.000000000000000000e+00,0.000000000000000000e+00,0.000000000000000000e+00,0.000000000000000000e+00,0.000000000000000000e+00,0.000000000000000000e+00,0.000000000000000000e+00,0.000000000000000000e+00,0.000000000000000000e+00,0.000000000000000000e+00,0.000000000000000000e+00,0.000000000000000000e+00,0.000000000000000000e+00,0.000000000000000000e+00,0.000000000000000000e+00,0.000000000000000000e+00,0.000000000000000000e+00,0.000000000000000000e+00,0.000000000000000000e+00,0.000000000000000000e+00,0.000000000000000000e+00,0.000000000000000000e+00,0.000000000000000000e+00,0.000000000000000000e+00,0.000000000000000000e+00,0.000000000000000000e+00,0.000000000000000000e+00,0.000000000000000000e+00,0.000000000000000000e+00,0.000000000000000000e+00
2.758711621774345701e-01,3.164626106611414524e-01,9.860614051610472330e-02,3.537012620079110770e-01,3.049350160105481211e-01,1.255792051233753925e-01,8.617442079487662443e-02,3.680730834432096588e-01,1.000000000000000000e+00,8.176681107553211703e-02,1.226596345827839496e-01,1.411188547749105404e-01,5.166132981729139040e-01,3.318327368619325424e-01,4.762478809568657101e-01,8.169146731964588293e-02,2.139762667168958535e-02,3.700696929741947860e-01,5.118478056131098297e-01,1.164437747221699071e-01,1.555283480881521907e-01,6.829911471086833052e-02,1.294029007346016169e-02,5.944622339423619728e-01,8.745526464494254859e-02,2.273686193256733712e-01,5.127142588058014594e-02,6.686758334902994649e-01,3.697494820116782599e-02,5.577321529478244250e-02,3.998681484271990882e-01,7.021849689207007028e-01,9.201356187605952419e-02,1.599736296854398221e-01,4.196270484083631791e-01,1.001130156338293498e-01,9.195705405914485209e-02,3.976266716895836967e-02,1.915049915238274669e-01,4.019589376530419839e-02,2.696553023168204999e-01,1.428894330382369515e-01,2.758711621774345701e-01,3.164626106611414524e-01,9.860614051610472330e-02,3.537012620079110770e-01,3.049350160105481211e-01,1.255792051233753925e-01,8.617442079487662443e-02,3.680730834432096588e-01,1.000000000000000000e+00,8.176681107553211703e-02,1.226596345827839496e-01,1.411188547749105404e-01,5.166132981729139040e-01,3.318327368619325424e-01,4.762478809568657101e-01,8.169146731964588293e-02,2.139762667168958535e-02,3.700696929741947860e-01,5.118478056131098297e-01,1.164437747221699071e-01,1.555283480881521907e-01,6.829911471086833052e-02,1.294029007346016169e-02,5.944622339423619728e-01,8.745526464494254859e-02,2.273686193256733712e-01,5.127142588058014594e-02,6.686758334902994649e-01,3.697494820116782599e-02,5.577321529478244250e-02,3.494250476073363920e-01,3.100627087602663701e-01,1.359892123152907917e-01,3.540063114596713745e-01,2.983642247303629480e-01,1.153316606274260303e-01,7.431879050009597421e-02,4.137138221773455915e-01,9.358715945564368699e-01,1.244516705228461695e-01,1.564137217235547772e-01,1.801174470121321147e-01,5.087571037617933944e-01,2.968570417650390758e-01,4.798533695166997126e-01,9.266187312356136130e-02,5.963161493009130898e-02,3.774734968268450008e-01,5.477814025897467243e-01,1.162661787360536603e-01,1.037444099762311472e-01,1.738403759688740002e-01,1.180049007408359302e-01,5.886859984824927006e-01,8.706415403024241051e-02,2.442166630300668939e-01,2.694487273383494030e-01,6.562489151254464748e-01,1.041220724346943460e-01,6.559928815691562498e-02,3.922352926051219657e-01,6.680939438372844874e-01,1.492540829946316372e-01,3.239610722696133482e-01,4.082797521161282694e-01,1.206553692125103966e-01,8.743842416567441933e-02,1.289582458640525509e-01,2.022416230042168028e-01,4.876502558990097186e-02,2.664942982430090757e-01,1.511669992447552680e-01,3.494250476073363920e-01,3.100627087602663701e-01,1.359892123152907917e-01,3.540063114596713745e-01,2.983642247303629480e-01,1.153316606274260303e-01,7.431879050009597421e-02,4.137138221773455915e-01,9.358715945564368699e-01,1.244516705228461695e-01,1.564137217235547772e-01,1.801174470121321147e-01,5.087571037617933944e-01,2.968570417650390758e-01,4.798533695166997126e-01,9.266187312356136130e-02,5.963161493009130898e-02,3.774734968268450008e-01,5.477814025897467243e-01,1.162661787360536603e-01,1.037444099762311472e-01,1.738403759688740002e-01,1.180049007408359302e-01,5.886859984824927006e-01,8.706415403024241051e-02,2.442166630300668939e-01,2.694487273383494030e-01,6.562489151254464748e-01,1.041220724346943460e-01,6.559928815691562498e-02,4.568618005504913593e-01,2.834510642882196452e-01,2.153032845554463393e-01,3.567907451454990220e-01,2.803120442620492536e-01,9.346246900530401358e-02,4.756025067743355206e-02,4.834942214616719802e-01,7.634981592788024907e-01,1.765070842295190789e-01,2.084478283870888626e-01,2.378704661352554206e-01,4.889372424947012741e-01,2.047900068452339073e-01,4.842669264035948662e-01,1.201917049389584213e-01,1.799451868440761493e-01,3.935583868932387430e-01,6.037724739019553200e-01,1.471876807715896684e-01,4.047363928915447689e-02,2.896079518129272556e-01,2.254926380063487779e-01,5.862089074295474544e-01,1.021230243808149141e-01,2.597336405794760661e-01,4.686214576890328498e-01,6.130222813682588701e-01,2.179827471464075850e-01,7.414704148384022864e-02,3.810656184429522253e-01,5.839196933881075635e-01,2.414342560041540242e-01,5.259428013663780543e-01,3.771172492446743241e-01,1.765534748727931313e-01,7.274372322849512185e-02,2.254986083090197435e-01,2.311300969052103860e-01,7.005909591130841940e-02,2.438558500917459848e-01,1.719742500274803187e-01,4.568618005504913593e-01,2.834510642882196452e-01,2.153032845554463393e-01,3.567907451454990220e-01,2.803120442620492536e-01,9.346246900530401358e-02,4.756025067743355206e-02,4.834942214616719802e-01,7.634981592788024907e-01,1.765070842295190789e-01,2.084478283870888626e-01,2.378704661352554206e-01,4.889372424947012741e-01,2.047900068452339073e-01,4.842669264035948662e-01,1.201917049389584213e-01,1.799451868440761493e-01,3.935583868932387430e-01,6.037724739019553200e-01,1.471876807715896684e-01,4.047363928915447689e-02,2.896079518129272556e-01,2.254926380063487779e-01,5.862089074295474544e-01,1.021230243808149141e-01,2.597336405794760661e-01,4.686214576890328498e-01,6.130222813682588701e-01,2.179827471464075850e-01,7.414704148384022864e-02,4.862040882254806129e-01,2.230558812170248817e-01,3.021273586023891511e-01,3.661948288500603832e-01,2.562308795137699380e-01,8.293817357013333336e-02,5.475486946303011193e-02,4.887163147908075156e-01,5.408271657628777040e-01,1.928042092445889644e-01,2.306840767126165925e-01,2.602989179124962082e-01,4.644821987381650419e-01,1.005453846468135071e-01,4.746913978608461870e-01,1.550287834721184033e-01,3.436072111661357953e-01,4.029339056976026234e-01,5.996620959116895078e-01,2.299951199990074857e-01,2.250324250390159653e-01,3.434674597496633619e-01,3.119506521441750557e-01,6.091902868273666449e-01,1.521511200532815467e-01,2.250398505743815281e-01,5.593831063278571492e-01,5.272781757360884836e-01,3.442930997470121102e-01,9.650747513488285023e-02,3.908046164681547308e-01,4.957778029608650439e-01,3.187940898029250070e-01,6.329811826365451255e-01,3.340650960651330714e-01,2.495920699370860196e-01,5.401473860508138741e-02,2.820873534909526525e-01,2.716983002674074332e-01,9.969451944947645139e-02,1.800430378119395602e-01,1.957384525431014322e-01,4.862040882254806129e-01,2.230558812170248817e-01,3.021273586023891511e-01,3.661948288500603832e-01,2.562308795137699380e-01,8.293817357013333336e-02,5.475486946303011193e-02,4.887163147908075156e-01,5.408271657628777040e-01,1.928042092445889644e-01,2.306840767126165925e-01,2.602989179124962082e-01,4.644821987381650419e-01,1.005453846468135071e-01,4.746913978608461870e-01,1.550287834721184033e-01,3.436072111661357953e-01,4.029339056976026234e-01,5.996620959116895078e-01,2.299951199990074857e-01,2.250324250390159653e-01,3.434674597496633619e-01,3.119506521441750557e-01,6.091902868273666449e-01,1.521511200532815467e-01,2.250398505743815281e-01,5.593831063278571492e-01,5.272781757360884836e-01,3.442930997470121102e-01,9.650747513488285023e-02,4.038851075261059020e-01,1.248700331802748420e-01,3.709265247929018905e-01,3.843609468003065244e-01,2.347925059419899152e-01,9.204134297472429949e-02,1.100893206474861663e-01,3.947614777247770435e-01,3.608040774280356078e-01,1.920878196882924160e-01,2.098047659828131128e-01,2.428722583958151660e-01,4.383510631505466715e-01,1.025464265710845646e-01,4.363022840628492105e-01,1.892401800084725361e-01,5.029094999598752169e-01,3.883498017541835434e-01,4.985359159690755937e-01,3.304516804490912896e-01,4.010602071698227689e-01,3.225342018874098882e-01,3.644005341658941854e-01,6.473882475802776870e-01,2.249613428043336083e-01,1.333267094699710220e-01,5.230261878472223236e-01,3.948266519315069001e-01,4.493654799139514822e-01,1.919115273960361745e-01,4.294317131740698623e-01,4.432594608997467156e-01,3.649032281487991081e-01,6.200950695804778867e-01,2.897895496923389991e-01,3.140279664411292915e-01,6.903776766708290269e-02,2.869448656225353500e-01,3.168991549999817248e-01,1.364572631516570989e-01,9.160274411425081698e-02,2.107209460451162364e-01,4.038851075261059020e-01,1.248700331802748420e-01,3.709265247929018905e-01,3.843609468003065244e-01,2.347925059419899152e-01,9.204134297472429949e-02,1.100893206474861663e-01,3.947614777247770435e-01,3.608040774280356078e-01,1.920878196882924160e-01,2.098047659828131128e-01,2.428722583958151660e-01,4.383510631505466715e-01,1.025464265710845646e-01,4.363022840628492105e-01,1.892401800084725361e-01,5.029094999598752169e-01,3.883498017541835434e-01,4.985359159690755937e-01,3.304516804490912896e-01,4.010602071698227689e-01,3.225342018874098882e-01,3.644005341658941854e-01,6.473882475802776870e-01,2.249613428043336083e-01,1.333267094699710220e-01,5.230261878472223236e-01,3.948266519315069001e-01,4.493654799139514822e-01,1.919115273960361745e-01,2.239532490502295359e-01,4.283414391605896987e-02,3.997455892060768901e-01,4.067747350352396984e-01,2.222349190481421877e-01,1.008790785101189857e-01,1.763927869296728623e-01,2.140223525774973823e-01,3.094815303938627249e-01,2.285035617436741995e-01,1.603567053037454337e-01,2.203639638405795187e-01,4.063747720305231348e-01,1.594250509442043939e-01,3.603121930313183396e-01,2.170406757897159755e-01,6.137316571213579097e-01,3.406387380602881598e-01,3.196730085740137062e-01,4.131939376781526008e-01,5.130093937582979047e-01,2.398915457906624082e-01,3.744906183776369746e-01,6.614992061776533427e-01,2.978675830752776643e-01,1.286370054022555054e-01,3.797846239703249194e-01,2.371273820276450228e-01,5.014817893723996223e-01,3.428990431772994674e-01,4.757408983918413048e-01,4.110594459723423966e-01,3.725936988355329493e-01,5.019360747956477242e-01,2.535344989381445036e-01,3.451396192473780711e-01,1.222944383680565489e-01,2.389128906023497978e-01,3.568361532217088627e-01,1.791221179602199842e-01,1.711599437877012742e-01,2.053626649570848006e-01,2.239532490502295359e-01,4.283414391605896987e-02,3.997455892060768901e-01,4.067747350352396984e-01,2.222349190481421877e-01,1.008790785101189857e-01,1.763927869296728623e-01,2.140223525774973823e-01,3.094815303938627249e-01,2.285035617436741995e-01,1.603567053037454337e-01,2.203639638405795187e-01,4.063747720305231348e-01,1.594250509442043939e-01,3.603121930313183396e-01,2.170406757897159755e-01,6.137316571213579097e-01,3.406387380602881598e-01,3.196730085740137062e-01,4.131939376781526008e-01,5.130093937582979047e-01,2.398915457906624082e-01,3.744906183776369746e-01,6.614992061776533427e-01,2.978675830752776643e-01,1.286370054022555054e-01,3.797846239703249194e-01,2.371273820276450228e-01,5.014817893723996223e-01,3.428990431772994674e-01,8.204787771411585495e-03,1.588026738564577434e-01,3.771682897175979710e-01,4.216869982797460392e-01,2.143951399806689195e-01,1.027262464015564619e-01,2.444959989566521663e-01,4.105442596938011640e-02,3.213922476540213569e-01,3.030212390330406791e-01,1.426741758906973911e-01,2.382704201855815329e-01,3.638936900967543187e-01,1.621055891697117113e-01,2.472060030519279694e-01,2.367968156553075521e-01,6.476878599634380285e-01,2.729110933647730386e-01,1.984393599709235456e-01,4.556512408244743351e-01,5.262317012470643096e-01,1.456242472239875907e-01,3.459795471284133339e-01,6.211127330046400941e-01,3.498831652678036086e-01,2.975985369956286042e-01,2.166974180253510296e-01,1.734164064034456054e-01,4.898558563506259511e-01,5.048463387107837708e-01,5.009448229899036154e-01,3.470772935361303713e-01,3.443149715057025051e-01,3.216932882480200151e-01,2.283873204483599095e-01,3.267246983843326569e-01,1.772847794069488947e-01,1.456214450320426901e-01,3.779332978918503172e-01,2.242908369628022480e-01,3.541517926740239131e-01,1.726561645303872905e-01,8.204787771411585495e-03,1.588026738564577434e-01,3.771682897175979710e-01,4.216869982797460392e-01,2.143951399806689195e-01,1.027262464015564619e-01,2.444959989566521663e-01,4.105442596938011640e-02,3.213922476540213569e-01,3.030212390330406791e-01,1.426741758906973911e-01,2.382704201855815329e-01,3.638936900967543187e-01,1.621055891697117113e-01,2.472060030519279694e-01,2.367968156553075521e-01,6.476878599634380285e-01,2.729110933647730386e-01,1.984393599709235456e-01,4.556512408244743351e-01,5.262317012470643096e-01,1.456242472239875907e-01,3.459795471284133339e-01,6.211127330046400941e-01,3.498831652678036086e-01,2.975985369956286042e-01,2.166974180253510296e-01,1.734164064034456054e-01,4.898558563506259511e-01,5.048463387107837708e-01,2.301509915581987087e-01,2.767098569447958289e-01,3.092200069993689127e-01,4.143532297120177676e-01,1.988215934780930283e-01,1.144652121685257873e-01,3.128299874894653887e-01,2.317441490060865583e-01,2.896903000665922434e-01,3.580474644276681606e-01,2.087083950379038655e-01,2.804085900770578732e-01,3.141391072942099072e-01,9.674459979522179176e-02,1.135410139491032783e-01,2.528716966967072821e-01,5.999132466742304048e-01,2.414656430594111503e-01,3.422117964803939039e-01,4.497559994052640064e-01,4.374720230356458073e-01,1.538604314526993977e-01,3.017995443459516314e-01,5.300527957801773882e-01,3.643962145128362140e-01,4.660004376853045804e-01,2.674376240518814285e-01,3.091728799431888164e-01,4.413652083758987099e-01,6.327085922198129042e-01,4.876612801241063111e-01,2.210244931906798493e-01,2.943222711113478995e-01,1.385039587496890989e-01,2.104845154139955432e-01,2.563640851993935210e-01,2.088648981528989368e-01,2.171263144722002797e-02,3.665309064082047930e-01,2.656272256517130392e-01,5.250164283521666642e-01,1.233660221817105412e-01,2.301509915581987087e-01,2.767098569447958289e-01,3.092200069993689127e-01,4.143532297120177676e-01,1.988215934780930283e-01,1.144652121685257873e-01,3.128299874894653887e-01,2.317441490060865583e-01,2.896903000665922434e-01,3.580474644276681606e-01,2.087083950379038655e-01,2.804085900770578732e-01,3.141391072942099072e-01,9.674459979522179176e-02,1.135410139491032783e-01,2.528716966967072821e-01,5.999132466742304048e-01,2.414656430594111503e-01,3.422117964803939039e-01,4.497559994052640064e-01,4.374720230356458073e-01,1.538604314526993977e-01,3.017995443459516314e-01,5.300527957801773882e-01,3.643962145128362140e-01,4.660004376853045804e-01,2.674376240518814285e-01,3.091728799431888164e-01,4.413652083758987099e-01,6.327085922198129042e-01,3.852477485681288227e-01,3.541867643447798031e-01,2.251172720372134617e-01,3.728862989057262767e-01,1.662565272012422324e-01,1.441915055105414400e-01,3.794598856579436963e-01,3.729814268986847980e-01,2.084642014403441379e-01,3.454783532768916920e-01,3.021051807141894030e-01,2.931415310016381448e-01,2.683410247403459903e-01,4.216326325477806614e-02,1.022822498614813086e-01,2.736349673103789515e-01,4.896663371848189450e-01,3.010193594986628196e-01,5.261560725023841645e-01,4.027096692643709619e-01,2.857700470681771021e-01,2.316883233464183400e-01,2.812088895564012758e-01,4.327860286177461213e-01,3.328584257765113130e-01,5.715565999338183545e-01,4.457043410533703676e-01,4.686163548500388298e-01,4.232539017147510241e-01,6.878340341812798631e-01,4.344657514678010868e-01,4.817339258125589302e-02,2.466931340943903650e-01,4.374763663563611266e-02,1.938717165559316058e-01,1.496105465751781938e-01,1.991154895599830943e-01,1.170950591461262513e-01,3.146835930458375952e-01,2.947175247116300412e-01,6.366392813340983059e-01,1.273367972508432089e-01,3.852477485681288227e-01,3.541867643447798031e-01,2.251172720372134617e-01,3.728862989057262767e-01,1.662565272012422324e-01,1.441915055105414400e-01,3.794598856579436963e-01,3.729814268986847980e-01,2.084642014403441379e-01,3.454783532768916920e-01,3.021051807141894030e-01,2.931415310016381448e-01,2.683410247403459903e-01,4.216326325477806614e-02,1.022822498614813086e-01,2.736349673103789515e-01,4.896663371848189450e-01,3.010193594986628196e-01,5.261560725023841645e-01,4.027096692643709619e-01,2.857700470681771021e-01,2.316883233464183400e-01,2.812088895564012758e-01,4.327860286177461213e-01,3.328584257765113130e-01,5.715565999338183545e-01,4.457043410533703676e-01,4.686163548500388298e-01,4.232539017147510241e-01,6.878340341812798631e-01,4.352488336287951287e-01,3.829188977252341308e-01,1.803829582535916021e-01,2.934508971473707151e-01,1.197579610814795137e-01,1.698527389674659716e-01,4.386180157448938410e-01,4.085886248379249630e-01,1.690960526705517220e-01,2.461810576288265273e-01,3.780025513480548827e-01,2.444838091492329835e-01,2.337747731010237084e-01,1.772252408454951800e-01,2.452522210441234751e-01,3.037355658850746098e-01,3.544015551565754540e-01,3.989417382046994698e-01,6.290831697064317440e-01,3.352299800433776733e-01,1.987074764992123876e-01,2.706581991756439876e-01,3.019802470408993189e-01,3.904288810271028809e-01,2.585272064458672969e-01,5.848792957583508478e-01,5.686408924253182340e-01,5.792376474720650759e-01,4.770918291760921082e-01,6.473389998039298376e-01,3.543528306915532111e-01,1.657171902143272368e-01,2.196804959446952143e-01,7.477007076428492105e-02,1.747900500496819831e-01,7.890579903986576216e-02,1.391793133478143041e-01,2.480415620195697279e-01,2.250525153002046752e-01,3.034080012513357683e-01,6.587887141810502278e-01,2.231662304392363905e-01,4.352488336287951287e-01,3.829188977252341308e-01,1.803829582535916021e-01,2.934508971473707151e-01,1.197579610814795137e-01,1.698527389674659716e-01,4.386180157448938410e-01,4.085886248379249630e-01,1.690960526705517220e-01,2.461810576288265273e-01,3.780025513480548827e-01,2.444838091492329835e-01,2.337747731010237084e-01,1.772252408454951800e-01,2.452522210441234751e-01,3.037355658850746098e-01,3.544015551565754540e-01,3.989417382046994698e-01,6.290831697064317440e-01,3.352299800433776733e-01,1.987074764992123876e-01,2.706581991756439876e-01,3.019802470408993189e-01,3.904288810271028809e-01,2.585272064458672969e-01,5.848792957583508478e-01,5.686408924253182340e-01,5.792376474720650759e-01,4.770918291760921082e-01,6.473389998039298376e-01,3.729147593724029264e-01,3.776530129744807285e-01,1.992257553650290947e-01,1.853988298096090059e-01,8.154200759036711599e-02,1.667739654375438307e-01,4.812990732550646578e-01,3.309348651961926402e-01,2.384225830488019560e-01,9.703307236034235117e-02,4.204644957901997326e-01,1.357602783574505811e-01,2.014052192501027128e-01,3.066548631522663104e-01,3.776145577932896180e-01,3.377207711492833386e-01,2.414510520618158018e-01,4.648360828485296192e-01,6.246563924163126558e-01,2.758580916744025058e-01,2.976664976570302934e-01,2.378499938272906900e-01,3.322218911458455493e-01,4.002419124813462181e-01,1.612360563847128336e-01,5.046134879879816681e-01,5.907198989805662048e-01,6.205796033007251467e-01,5.493126907846130891e-01,5.105650767427060144e-01,2.716389593477371855e-01,3.367976622943995024e-01,2.016471144906285817e-01,3.753664750105116521e-02,1.512128964491841199e-01,1.657890740176756750e-01,3.249000646435645789e-02,3.517175330594397020e-01,1.142576782545292186e-01,2.869623346772696149e-01,5.812790222007864216e-01,3.390442955568606087e-01,3.729147593724029264e-01,3.776530129744807285e-01,1.992257553650290947e-01,1.853988298096090059e-01,8.154200759036711599e-02,1.667739654375438307e-01,4.812990732550646578e-01,3.309348651961926402e-01,2.384225830488019560e-01,9.703307236034235117e-02,4.204644957901997326e-01,1.357602783574505811e-01,2.014052192501027128e-01,3.066548631522663104e-01,3.776145577932896180e-01,3.377207711492833386e-01,2.414510520618158018e-01,4.648360828485296192e-01,6.246563924163126558e-01,2.758580916744025058e-01,2.976664976570302934e-01,2.378499938272906900e-01,3.322218911458455493e-01,4.002419124813462181e-01,1.612360563847128336e-01,5.046134879879816681e-01,5.907198989805662048e-01,6.205796033007251467e-01,5.493126907846130891e-01,5.105650767427060144e-01,2.247364731134375015e-01,3.727182150957460416e-01,2.211341115212984709e-01,9.345023558721678170e-02,8.303992879974672614e-02,1.324532310510700139e-01,4.988631521704910421e-01,1.652483398724550745e-01,3.060315953319334703e-01,2.139820000964308133e-01,4.294059538459463754e-01,8.520749753806199089e-02,1.549492232509926681e-01,3.916378497036429041e-01,4.691651155098996440e-01,3.633737074432329961e-01,1.955132729728192575e-01,4.607506766322686520e-01,5.244199444120799525e-01,2.462720963590260825e-01,4.112447208939683518e-01,1.327635055916146500e-01,3.341365984237948394e-01,3.912885749784283385e-01,1.016379507630573581e-01,3.607496743677947038e-01,5.125561836484218148e-01,5.935814836695262331e-01,5.642235227133028941e-01,2.999084544601824387e-01,2.165773128541338688e-01,4.407565078358930410e-01,1.617150798095798314e-01,7.335596138709027381e-02,1.208175166412395335e-01,2.671411218170557933e-01,1.070418052565835776e-01,4.092639885383576037e-01,4.996890666842037504e-02,2.471928625565946724e-01,4.162368567437513822e-01,4.285689927800777621e-01,2.247364731134375015e-01,3.727182150957460416e-01,2.211341115212984709e-01,9.345023558721678170e-02,8.303992879974672614e-02,1.324532310510700139e-01,4.988631521704910421e-01,1.652483398724550745e-01,3.060315953319334703e-01,2.139820000964308133e-01,4.294059538459463754e-01,8.520749753806199089e-02,1.549492232509926681e-01,3.916378497036429041e-01,4.691651155098996440e-01,3.633737074432329961e-01,1.955132729728192575e-01,4.607506766322686520e-01,5.244199444120799525e-01,2.462720963590260825e-01,4.112447208939683518e-01,1.327635055916146500e-01,3.341365984237948394e-01,3.912885749784283385e-01,1.016379507630573581e-01,3.607496743677947038e-01,5.125561836484218148e-01,5.935814836695262331e-01,5.642235227133028941e-01,2.999084544601824387e-01,7.935614620462796975e-02,3.951957070741400901e-01,2.011136049738677101e-01,1.382103268341029201e-01,1.005332824242027856e-01,1.305319576256511183e-01,4.870871621442303123e-01,7.422871456683520497e-02,3.091277206767433783e-01,4.438315105713113162e-01,4.153585692535886609e-01,2.378815878988714827e-01,9.445294885170234245e-02,4.161311924496368109e-01,5.050190031058870987e-01,3.702335304307334263e-01,2.161880467928320726e-01,3.759568254967149969e-01,3.653616258958914398e-01,2.423777396882827451e-01,4.493571102258102079e-01,3.971741196303685967e-02,2.963828916039042971e-01,3.161673526295584735e-01,1.486718885148081426e-01,2.264229144462091003e-01,3.624224265675939916e-01,5.149763879002933198e-01,4.813283314835081761e-01,5.793344796723750439e-02,2.048637637829300029e-01,4.559517694951289446e-01,8.188270816301199129e-02,2.115294237247377362e-01,8.247086529613668893e-02,3.360503961469323286e-01,2.522176940391160915e-01,4.068353450135747673e-01,1.195315048365221400e-01,1.948197962638244796e-01,1.953298060265845071e-01,4.624923718902670400e-01,7.935614620462796975e-02,3.951957070741400901e-01,2.011136049738677101e-01,1.382103268341029201e-01,1.005332824242027856e-01,1.305319576256511183e-01,4.870871621442303123e-01,7.422871456683520497e-02,3.091277206767433783e-01,4.438315105713113162e-01,4.153585692535886609e-01,2.378815878988714827e-01,9.445294885170234245e-02,4.161311924496368109e-01,5.050190031058870987e-01,3.702335304307334263e-01,2.161880467928320726e-01,3.759568254967149969e-01,3.653616258958914398e-01,2.423777396882827451e-01,4.493571102258102079e-01,3.971741196303685967e-02,2.963828916039042971e-01,3.161673526295584735e-01,1.486718885148081426e-01,2.264229144462091003e-01,3.624224265675939916e-01,5.149763879002933198e-01,4.813283314835081761e-01,5.793344796723750439e-02,0.000000000000000000e+00,0.000000000000000000e+00,0.000000000000000000e+00,0.000000000000000000e+00,0.000000000000000000e+00,0.000000000000000000e+00,0.000000000000000000e+00,0.000000000000000000e+00,0.000000000000000000e+00,0.000000000000000000e+00,0.000000000000000000e+00,0.000000000000000000e+00,0.000000000000000000e+00,0.000000000000000000e+00,0.000000000000000000e+00,0.000000000000000000e+00,0.000000000000000000e+00,0.000000000000000000e+00,0.000000000000000000e+00,0.000000000000000000e+00,0.000000000000000000e+00,0.000000000000000000e+00,0.000000000000000000e+00,0.000000000000000000e+00,0.000000000000000000e+00,0.000000000000000000e+00,0.000000000000000000e+00,0.000000000000000000e+00,0.000000000000000000e+00,0.000000000000000000e+00,0.000000000000000000e+00,0.000000000000000000e+00,0.000000000000000000e+00,0.000000000000000000e+00,0.000000000000000000e+00,0.000000000000000000e+00,0.000000000000000000e+00,0.000000000000000000e+00,0.000000000000000000e+00,0.000000000000000000e+00,0.000000000000000000e+00,0.000000000000000000e+00,0.000000000000000000e+00,0.000000000000000000e+00,0.000000000000000000e+00,0.000000000000000000e+00,0.000000000000000000e+00,0.000000000000000000e+00,0.000000000000000000e+00,0.000000000000000000e+00,0.000000000000000000e+00,0.000000000000000000e+00,0.000000000000000000e+00,0.000000000000000000e+00,0.000000000000000000e+00,0.000000000000000000e+00,0.000000000000000000e+00,0.000000000000000000e+00,0.000000000000000000e+00,0.000000000000000000e+00,0.000000000000000000e+00,0.000000000000000000e+00,0.000000000000000000e+00,0.000000000000000000e+00,0.000000000000000000e+00,0.000000000000000000e+00,0.000000000000000000e+00,0.000000000000000000e+00,0.000000000000000000e+00,0.000000000000000000e+00,0.000000000000000000e+00,0.000000000000000000e+00,0.000000000000000000e+00,0.000000000000000000e+00
4.762478809568657101e-01,8.169146731964588293e-02,2.139762667168958535e-02,3.700696929741947860e-01,5.118478056131098297e-01,1.164437747221699071e-01,1.555283480881521907e-01,6.829911471086833052e-02,1.294029007346016169e-02,5.944622339423619728e-01,8.745526464494254859e-02,2.273686193256733712e-01,5.127142588058014594e-02,6.686758334902994649e-01,3.697494820116782599e-02,5.577321529478244250e-02,3.998681484271990882e-01,7.021849689207007028e-01,9.201356187605952419e-02,1.599736296854398221e-01,4.196270484083631791e-01,1.001130156338293498e-01,9.195705405914485209e-02,3.976266716895836967e-02,1.915049915238274669e-01,4.019589376530419839e-02,2.696553023168204999e-01,1.428894330382369515e-01,5.540779807873422724e-01,7.344132605010360304e-02,2.408363156903371716e-01,2.806554906762102203e-03,2.187605952156715106e-01,9.915238274627989623e-02,3.830664908645696198e-01,4.032209455641363460e-01,5.200602750047089717e-02,5.528348088152194029e-01,1.715954040308909426e-02,2.224524392540968079e-02,2.608400828781314851e-01,2.827839517799962121e-01,4.762478809568657101e-01,8.169146731964588293e-02,2.139762667168958535e-02,3.700696929741947860e-01,5.118478056131098297e-01,1.164437747221699071e-01,1.555283480881521907e-01,6.829911471086833052e-02,1.294029007346016169e-02,5.944622339423619728e-01,8.745526464494254859e-02,2.273686193256733712e-01,5.127142588058014594e-02,6.686758334902994649e-01,3.697494820116782599e-02,5.577321529478244250e-02,3.998681484271990882e-01,7.021849689207007028e-01,9.201356187605952419e-02,1.599736296854398221e-01,4.196270484083631791e-01,1.001130156338293498e-01,9.195705405914485209e-02,3.976266716895836967e-02,1.915049915238274669e-01,4.019589376530419839e-02,2.696553023168204999e-01,1.428894330382369515e-01,5.540779807873422724e-01,7.344132605010360304e-02,4.798533695166997126e-01,9.266187312356136130e-02,5.963161493009130898e-02,3.774734968268450008e-01,5.477814025897467243e-01,1.162661787360536603e-01,1.037444099762311472e-01,1.738403759688740002e-01,1.180049007408359302e-01,5.886859984824927006e-01,8.706415403024241051e-02,2.442166630300668939e-01,2.694487273383494030e-01,6.562489151254464748e-01,1.041220724346943460e-01,6.559928815691562498e-02,3.922352926051219657e-01,6.680939438372844874e-01,1.492540829946316372e-01,3.239610722696133482e-01,4.082797521161282694e-01,1.206553692125103966e-01,8.743842416567441933e-02,1.289582458640525509e-01,2.022416230042168028e-01,4.876502558990097186e-02,2.664942982430090757e-01,1.511669992447552680e-01,5.627675335166075765e-01,8.703737822620925824e-02,2.290022255253319483e-01,4.037677459343810837e-02,1.939858784413170667e-01,8.906082461803560557e-02,3.998189584435028476e-01,3.934747303195855195e-01,3.572038523182955588e-02,5.403406642047511310e-01,2.115510023469848594e-02,1.645684183891101549e-01,2.636659474838698447e-01,2.767634391707887720e-01,4.798533695166997126e-01,9.266187312356136130e-02,5.963161493009130898e-02,3.774734968268450008e-01,5.477814025897467243e-01,1.162661787360536603e-01,1.037444099762311472e-01,1.738403759688740002e-01,1.180049007408359302e-01,5.886859984824927006e-01,8.706415403024241051e-02,2.442166630300668939e-01,2.694487273383494030e-01,6.562489151254464748e-01,1.041220724346943460e-01,6.559928815691562498e-02,3.922352926051219657e-01,6.680939438372844874e-01,1.492540829946316372e-01,3.239610722696133482e-01,4.082797521161282694e-01,1.206553692125103966e-01,8.743842416567441933e-02,1.289582458640525509e-01,2.022416230042168028e-01,4.876502558990097186e-02,2.664942982430090757e-01,1.511669992447552680e-01,5.627675335166075765e-01,8.703737822620925824e-02,4.842669264035948662e-01,1.201917049389584213e-01,1.799451868440761493e-01,3.935583868932387430e-01,6.037724739019553200e-01,1.471876807715896684e-01,4.047363928915447689e-02,2.896079518129272556e-01,2.254926380063487779e-01,5.862089074295474544e-01,1.021230243808149141e-01,2.597336405794760661e-01,4.686214576890328498e-01,6.130222813682588701e-01,2.179827471464075850e-01,7.414704148384022864e-02,3.810656184429522253e-01,5.839196933881075635e-01,2.414342560041540242e-01,5.259428013663780543e-01,3.771172492446743241e-01,1.765534748727931313e-01,7.274372322849512185e-02,2.254986083090197435e-01,2.311300969052103860e-01,7.005909591130841940e-02,2.438558500917459848e-01,1.719742500274803187e-01,5.812572179763598745e-01,9.761187618442115910e-02,2.096000154410050942e-01,8.829021375503878777e-02,1.351521632149922936e-01,1.001396061628949119e-01,4.240638174856078413e-01,3.710709018529328995e-01,8.383490639157654967e-02,5.037062244901714392e-01,1.165207638051162509e-01,3.117832154207258455e-01,2.681996700939051625e-01,2.585854605264221173e-01,4.842669264035948662e-01,1.201917049389584213e-01,1.799451868440761493e-01,3.935583868932387430e-01,6.037724739019553200e-01,1.471876807715896684e-01,4.047363928915447689e-02,2.896079518129272556e-01,2.254926380063487779e-01,5.862089074295474544e-01,1.021230243808149141e-01,2.597336405794760661e-01,4.686214576890328498e-01,6.130222813682588701e-01,2.179827471464075850e-01,7.414704148384022864e-02,3.810656184429522253e-01,5.839196933881075635e-01,2.414342560041540242e-01,5.259428013663780543e-01,3.771172492446743241e-01,1.765534748727931313e-01,7.274372322849512185e-02,2.254986083090197435e-01,2.311300969052103860e-01,7.005909591130841940e-02,2.438558500917459848e-01,1.719742500274803187e-01,5.812572179763598745e-01,9.761187618442115910e-02,4.746913978608461870e-01,1.550287834721184033e-01,3.436072111661357953e-01,4.029339056976026234e-01,5.996620959116895078e-01,2.299951199990074857e-01,2.250324250390159653e-01,3.434674597496633619e-01,3.119506521441750557e-01,6.091902868273666449e-01,1.521511200532815467e-01,2.250398505743815281e-01,5.593831063278571492e-01,5.272781757360884836e-01,3.442930997470121102e-01,9.650747513488285023e-02,3.908046164681547308e-01,4.957778029608650439e-01,3.187940898029250070e-01,6.329811826365451255e-01,3.340650960651330714e-01,2.495920699370860196e-01,5.401473860508138741e-02,2.820873534909526525e-01,2.716983002674074332e-01,9.969451944947645139e-02,1.800430378119395602e-01,1.957384525431014322e-01,5.930440416297232398e-01,7.443690068751454558e-02,2.156125144706604047e-01,1.360144555805577193e-01,1.093398577714719822e-01,1.779980051587324863e-01,4.135094398818383032e-01,3.516649332887041846e-01,2.020436222555007655e-01,4.458906671310211012e-01,2.440944801654127139e-01,4.262366810149921803e-01,2.664124407243366743e-01,2.281337646895963134e-01,4.746913978608461870e-01,1.550287834721184033e-01,3.436072111661357953e-01,4.029339056976026234e-01,5.996620959116895078e-01,2.299951199990074857e-01,2.250324250390159653e-01,3.434674597496633619e-01,3.119506521441750557e-01,6.091902868273666449e-01,1.521511200532815467e-01,2.250398505743815281e-01,5.593831063278571492e-01,5.272781757360884836e-01,3.442930997470121102e-01,9.650747513488285023e-02,3.908046164681547308e-01,4.957778029608650439e-01,3.187940898029250070e-01,6.329811826365451255e-01,3.340650960651330714e-01,2.495920699370860196e-01,5.401473860508138741e-02,2.820873534909526525e-01,2.716983002674074332e-01,9.969451944947645139e-02,1.800430378119395602e-01,1.957384525431014322e-01,5.930440416297232398e-01,7.443690068751454558e-02,4.363022840628492105e-01,1.892401800084725361e-01,5.029094999598752169e-01,3.883498017541835434e-01,4.985359159690755937e-01,3.304516804490912896e-01,4.010602071698227689e-01,3.225342018874098882e-01,3.644005341658941854e-01,6.473882475802776870e-01,2.249613428043336083e-01,1.333267094699710220e-01,5.230261878472223236e-01,3.948266519315069001e-01,4.493654799139514822e-01,1.919115273960361745e-01,4.294317131740698623e-01,4.432594608997467156e-01,3.649032281487991081e-01,6.200950695804778867e-01,2.897895496923389991e-01,3.140279664411292915e-01,6.903776766708290269e-02,2.869448656225353500e-01,3.168991549999817248e-01,1.364572631516570989e-01,9.160274411425081698e-02,2.107209460451162364e-01,5.839565621151600050e-01,4.370928678348236229e-02,2.478615279316506437e-01,1.639841296175132135e-01,1.689225656610902071e-01,2.825083655691479900e-01,3.502780734824416653e-01,3.459346000512611985e-01,3.362312293861344226e-01,3.727746082968284580e-01,3.644993049478895686e-01,4.878200173968236242e-01,2.526933953845682534e-01,1.859603025425584366e-01,4.363022840628492105e-01,1.892401800084725361e-01,5.029094999598752169e-01,3.883498017541835434e-01,4.985359159690755937e-01,3.304516804490912896e-01,4.010602071698227689e-01,3.225342018874098882e-01,3.644005341658941854e-01,6.473882475802776870e-01,2.249613428043336083e-01,1.333267094699710220e-01,5.230261878472223236e-01,3.948266519315069001e-01,4.493654799139514822e-01,1.919115273960361745e-01,4.294317131740698623e-01,4.432594608997467156e-01,3.649032281487991081e-01,6.200950695804778867e-01,2.897895496923389991e-01,3.140279664411292915e-01,6.903776766708290269e-02,2.869448656225353500e-01,3.168991549999817248e-01,1.364572631516570989e-01,9.160274411425081698e-02,2.107209460451162364e-01,5.839565621151600050e-01,4.370928678348236229e-02,3.603121930313183396e-01,2.170406757897159755e-01,6.137316571213579097e-01,3.406387380602881598e-01,3.196730085740137062e-01,4.131939376781526008e-01,5.130093937582979047e-01,2.398915457906624082e-01,3.744906183776369746e-01,6.614992061776533427e-01,2.978675830752776643e-01,1.286370054022555054e-01,3.797846239703249194e-01,2.371273820276450228e-01,5.014817893723996223e-01,3.428990431772994674e-01,4.757408983918413048e-01,4.110594459723423966e-01,3.725936988355329493e-01,5.019360747956477242e-01,2.535344989381445036e-01,3.451396192473780711e-01,1.222944383680565489e-01,2.389128906023497978e-01,3.568361532217088627e-01,1.791221179602199842e-01,1.711599437877012742e-01,2.053626649570848006e-01,5.495027079762473399e-01,1.244481217304995030e-01,2.722703723114405228e-01,1.513251215517331660e-01,2.336091387114248019e-01,3.771838784004643008e-01,2.492183079697740666e-01,3.486116523450401017e-01,4.544103313192478510e-01,2.934245080750940704e-01,4.415016233227281317e-01,4.813211608502289685e-01,2.269097589784404012e-01,1.345009359541278482e-01,3.603121930313183396e-01,2.170406757897159755e-01,6.137316571213579097e-01,3.406387380602881598e-01,3.196730085740137062e-01,4.131939376781526008e-01,5.130093937582979047e-01,2.398915457906624082e-01,3.744906183776369746e-01,6.614992061776533427e-01,2.978675830752776643e-01,1.286370054022555054e-01,3.797846239703249194e-01,2.371273820276450228e-01,5.014817893723996223e-01,3.428990431772994674e-01,4.757408983918413048e-01,4.110594459723423966e-01,3.725936988355329493e-01,5.019360747956477242e-01,2.535344989381445036e-01,3.451396192473780711e-01,1.222944383680565489e-01,2.389128906023497978e-01,3.568361532217088627e-01,1.791221179602199842e-01,1.711599437877012742e-01,2.053626649570848006e-01,5.495027079762473399e-01,1.244481217304995030e-01,2.472060030519279694e-01,2.367968156553075521e-01,6.476878599634380285e-01,2.729110933647730386e-01,1.984393599709235456e-01,4.556512408244743351e-01,5.262317012470643096e-01,1.456242472239875907e-01,3.459795471284133339e-01,6.211127330046400941e-01,3.498831652678036086e-01,2.975985369956286042e-01,2.166974180253510296e-01,1.734164064034456054e-01,4.898558563506259511e-01,5.048463387107837708e-01,5.009448229899036154e-01,3.470772935361303713e-01,3.443149715057025051e-01,3.216932882480200151e-01,2.283873204483599095e-01,3.267246983843326569e-01,1.772847794069488947e-01,1.456214450320426901e-01,3.779332978918503172e-01,2.242908369628022480e-01,3.541517926740239131e-01,1.726561645303872905e-01,4.974321837288046555e-01,2.334414707707018477e-01,2.672355232853747542e-01,8.465756769791943359e-02,2.572514947396843943e-01,4.388129981454758077e-01,1.575258268771925763e-01,3.462819365709293162e-01,5.283918708084158755e-01,2.190467436770067444e-01,4.523581236731079036e-01,4.041289187796371918e-01,1.932382178988064358e-01,8.173956498962849093e-02,2.472060030519279694e-01,2.367968156553075521e-01,6.476878599634380285e-01,2.729110933647730386e-01,1.984393599709235456e-01,4.556512408244743351e-01,5.262317012470643096e-01,1.456242472239875907e-01,3.459795471284133339e-01,6.211127330046400941e-01,3.498831652678036086e-01,2.975985369956286042e-01,2.166974180253510296e-01,1.734164064034456054e-01,4.898558563506259511e-01,5.048463387107837708e-01,5.009448229899036154e-01,3.470772935361303713e-01,3.443149715057025051e-01,3.216932882480200151e-01,2.283873204483599095e-01,3.267246983843326569e-01,1.772847794069488947e-01,1.456214450320426901e-01,3.779332978918503172e-01,2.242908369628022480e-01,3.541517926740239131e-01,1.726561645303872905e-01,4.974321837288046555e-01,2.334414707707018477e-01,1.135410139491032783e-01,2.528716966967072821e-01,5.999132466742304048e-01,2.414656430594111503e-01,3.422117964803939039e-01,4.497559994052640064e-01,4.374720230356458073e-01,1.538604314526993977e-01,3.017995443459516314e-01,5.300527957801773882e-01,3.643962145128362140e-01,4.660004376853045804e-01,2.674376240518814285e-01,3.091728799431888164e-01,4.413652083758987099e-01,6.327085922198129042e-01,4.876612801241063111e-01,2.210244931906798493e-01,2.943222711113478995e-01,1.385039587496890989e-01,2.104845154139955432e-01,2.563640851993935210e-01,2.088648981528989368e-01,2.171263144722002797e-02,3.665309064082047930e-01,2.656272256517130392e-01,5.250164283521666642e-01,1.233660221817105412e-01,4.456216569548266948e-01,3.191086943543154364e-01,2.448432102716502079e-01,4.078464905320442618e-02,2.298982104416552597e-01,4.538100499547832456e-01,1.359422897047366519e-01,3.327847449343099284e-01,5.386700712898349064e-01,1.602945368343352550e-01,3.948542119186545518e-01,2.734100217233990104e-01,1.575353417575906523e-01,5.981951777005824200e-02,1.135410139491032783e-01,2.528716966967072821e-01,5.999132466742304048e-01,2.414656430594111503e-01,3.422117964803939039e-01,4.497559994052640064e-01,4.374720230356458073e-01,1.538604314526993977e-01,3.017995443459516314e-01,5.300527957801773882e-01,3.643962145128362140e-01,4.660004376853045804e-01,2.674376240518814285e-01,3.091728799431888164e-01,4.413652083758987099e-01,6.327085922198129042e-01,4.876612801241063111e-01,2.210244931906798493e-01,2.943222711113478995e-01,1.385039587496890989e-01,2.104845154139955432e-01,2.563640851993935210e-01,2.088648981528989368e-01,2.171263144722002797e-02,3.665309064082047930e-01,2.656272256517130392e-01,5.250164283521666642e-01,1.233660221817105412e-01,4.456216569548266948e-01,3.191086943543154364e-01,1.022822498614813086e-01,2.736349673103789515e-01,4.896663371848189450e-01,3.010193594986628196e-01,5.261560725023841645e-01,4.027096692643709619e-01,2.857700470681771021e-01,2.316883233464183400e-01,2.812088895564012758e-01,4.327860286177461213e-01,3.328584257765113130e-01,5.715565999338183545e-01,4.457043410533703676e-01,4.686163548500388298e-01,4.232539017147510241e-01,6.878340341812798631e-01,4.344657514678010868e-01,4.817339258125589302e-02,2.466931340943903650e-01,4.374763663563611266e-02,1.938717165559316058e-01,1.496105465751781938e-01,1.991154895599830943e-01,1.170950591461262513e-01,3.146835930458375952e-01,2.947175247116300412e-01,6.366392813340983059e-01,1.273367972508432089e-01,4.116205621393290714e-01,3.512097274060448360e-01,2.509590087204162656e-01,2.019043112214195801e-01,1.685344461352157874e-01,4.181869647779483667e-01,1.454399898903744603e-01,3.143627564728931345e-01,4.803060532623434353e-01,1.229867163532904623e-01,2.896713581877415900e-01,1.444943459382611040e-01,1.316411932861570322e-01,9.772247833027453146e-02,1.022822498614813086e-01,2.736349673103789515e-01,4.896663371848189450e-01,3.010193594986628196e-01,5.261560725023841645e-01,4.027096692643709619e-01,2.857700470681771021e-01,2.316883233464183400e-01,2.812088895564012758e-01,4.327860286177461213e-01,3.328584257765113130e-01,5.715565999338183545e-01,4.457043410533703676e-01,4.686163548500388298e-01,4.232539017147510241e-01,6.878340341812798631e-01,4.344657514678010868e-01,4.817339258125589302e-02,2.466931340943903650e-01,4.374763663563611266e-02,1.938717165559316058e-01,1.496105465751781938e-01,1.991154895599830943e-01,1.170950591461262513e-01,3.146835930458375952e-01,2.947175247116300412e-01,6.366392813340983059e-01,1.273367972508432089e-01,4.116205621393290714e-01,3.512097274060448360e-01,2.452522210441234751e-01,3.037355658850746098e-01,3.544015551565754540e-01,3.989417382046994698e-01,6.290831697064317440e-01,3.352299800433776733e-01,1.987074764992123876e-01,2.706581991756439876e-01,3.019802470408993189e-01,3.904288810271028809e-01,2.585272064458672969e-01,5.848792957583508478e-01,5.686408924253182340e-01,5.792376474720650759e-01,4.770918291760921082e-01,6.473389998039298376e-01,3.543528306915532111e-01,1.657171902143272368e-01,2.196804959446952143e-01,7.477007076428492105e-02,1.747900500496819831e-01,7.890579903986576216e-02,1.391793133478143041e-01,2.480415620195697279e-01,2.250525153002046752e-01,3.034080012513357683e-01,6.587887141810502278e-01,2.231662304392363905e-01,3.951197873543855765e-01,3.147085302838800169e-01,3.112330773723567257e-01,3.776543382375522340e-01,1.336194940836409051e-01,3.370439553600979576e-01,1.144131946475466094e-01,3.020925643032327246e-01,3.678144296590789009e-01,1.052909769963547015e-01,1.849766336981635007e-01,1.626975515990252141e-01,1.487011189861781879e-01,1.484723677105173612e-01,2.452522210441234751e-01,3.037355658850746098e-01,3.544015551565754540e-01,3.989417382046994698e-01,6.290831697064317440e-01,3.352299800433776733e-01,1.987074764992123876e-01,2.706581991756439876e-01,3.019802470408993189e-01,3.904288810271028809e-01,2.585272064458672969e-01,5.848792957583508478e-01,5.686408924253182340e-01,5.792376474720650759e-01,4.770918291760921082e-01,6.473389998039298376e-01,3.543528306915532111e-01,1.657171902143272368e-01,2.196804959446952143e-01,7.477007076428492105e-02,1.747900500496819831e-01,7.890579903986576216e-02,1.391793133478143041e-01,2.480415620195697279e-01,2.250525153002046752e-01,3.034080012513357683e-01,6.587887141810502278e-01,2.231662304392363905e-01,3.951197873543855765e-01,3.147085302838800169e-01,3.776145577932896180e-01,3.377207711492833386e-01,2.414510520618158018e-01,4.648360828485296192e-01,6.246563924163126558e-01,2.758580916744025058e-01,2.976664976570302934e-01,2.378499938272906900e-01,3.322218911458455493e-01,4.002419124813462181e-01,1.612360563847128336e-01,5.046134879879816681e-01,5.907198989805662048e-01,6.205796033007251467e-01,5.493126907846130891e-01,5.105650767427060144e-01,2.716389593477371855e-01,3.367976622943995024e-01,2.016471144906285817e-01,3.753664750105116521e-02,1.512128964491841199e-01,1.657890740176756750e-01,3.249000646435645789e-02,3.517175330594397020e-01,1.142576782545292186e-01,2.869623346772696149e-01,5.812790222007864216e-01,3.390442955568606087e-01,3.741823299352144971e-01,2.196381016421375953e-01,3.897344816444686666e-01,5.315528282203041410e-01,1.827950830479726507e-01,2.238965098939658116e-01,3.903320974406700866e-02,2.984739290700245684e-01,2.430412209131997403e-01,1.027823502834276231e-01,1.673370972864498818e-01,2.594494038206368591e-01,2.293694617388781498e-01,1.892782488211520731e-01,3.776145577932896180e-01,3.377207711492833386e-01,2.414510520618158018e-01,4.648360828485296192e-01,6.246563924163126558e-01,2.758580916744025058e-01,2.976664976570302934e-01,2.378499938272906900e-01,3.322218911458455493e-01,4.002419124813462181e-01,1.612360563847128336e-01,5.046134879879816681e-01,5.907198989805662048e-01,6.205796033007251467e-01,5.493126907846130891e-01,5.105650767427060144e-01,2.716389593477371855e-01,3.367976622943995024e-01,2.016471144906285817e-01,3.753664750105116521e-02,1.512128964491841199e-01,1.657890740176756750e-01,3.249000646435645789e-02,3.517175330594397020e-01,1.142576782545292186e-01,2.869623346772696149e-01,5.812790222007864216e-01,3.390442955568606087e-01,3.741823299352144971e-01,2.196381016421375953e-01,4.691651155098996440e-01,3.633737074432329961e-01,1.955132729728192575e-01,4.607506766322686520e-01,5.244199444120799525e-01,2.462720963590260825e-01,4.112447208939683518e-01,1.327635055916146500e-01,3.341365984237948394e-01,3.912885749784283385e-01,1.016379507630573581e-01,3.607496743677947038e-01,5.125561836484218148e-01,5.935814836695262331e-01,5.642235227133028941e-01,2.999084544601824387e-01,2.165773128541338688e-01,4.407565078358930410e-01,1.617150798095798314e-01,7.335596138709027381e-02,1.208175166412395335e-01,2.671411218170557933e-01,1.070418052565835776e-01,4.092639885383576037e-01,4.996890666842037504e-02,2.471928625565946724e-01,4.162368567437513822e-01,4.285689927800777621e-01,3.232727789803792606e-01,1.441326927797965674e-01,4.449496552729871324e-01,6.290808615621306110e-01,2.516680700232862833e-01,1.059428395816535001e-01,9.239375108933729763e-02,2.957325391708384710e-01,1.930365273336179799e-01,1.138232106209697281e-01,2.364007111775336401e-01,3.085502189563411046e-01,3.492150989244202086e-01,2.124921153423493803e-01,4.691651155098996440e-01,3.633737074432329961e-01,1.955132729728192575e-01,4.607506766322686520e-01,5.244199444120799525e-01,2.462720963590260825e-01,4.112447208939683518e-01,1.327635055916146500e-01,3.341365984237948394e-01,3.912885749784283385e-01,1.016379507630573581e-01,3.607496743677947038e-01,5.125561836484218148e-01,5.935814836695262331e-01,5.642235227133028941e-01,2.999084544601824387e-01,2.165773128541338688e-01,4.407565078358930410e-01,1.617150798095798314e-01,7.335596138709027381e-02,1.208175166412395335e-01,2.671411218170557933e-01,1.070418052565835776e-01,4.092639885383576037e-01,4.996890666842037504e-02,2.471928625565946724e-01,4.162368567437513822e-01,4.285689927800777621e-01,3.232727789803792606e-01,1.441326927797965674e-01,5.050190031058870987e-01,3.702335304307334263e-01,2.161880467928320726e-01,3.759568254967149969e-01,3.653616258958914398e-01,2.423777396882827451e-01,4.493571102258102079e-01,3.971741196303685967e-02,2.963828916039042971e-01,3.161673526295584735e-01,1.486718885148081426e-01,2.264229144462091003e-01,3.624224265675939916e-01,5.149763879002933198e-01,4.813283314835081761e-01,5.793344796723750439e-02,2.048637637829300029e-01,4.559517694951289446e-01,8.188270816301199129e-02,2.115294237247377362e-01,8.247086529613668893e-02,3.360503961469323286e-01,2.522176940391160915e-01,4.068353450135747673e-01,1.195315048365221400e-01,1.948197962638244796e-01,1.953298060265845071e-01,4.624923718902670400e-01,2.299484370788575371e-01,2.384665008666661812e-01,4.574684715178021777e-01,6.449975862224950340e-01,2.900501148893731562e-01,9.022083657738640128e-02,1.985415216970704277e-01,2.915615960819333830e-01,2.459984706231048979e-01,1.357705260473296704e-01,3.135895703539223756e-01,2.889654640577859479e-01,4.767201514333485601e-01,2.156505199288622221e-01,5.050190031058870987e-01,3.702335304307334263e-01,2.161880467928320726e-01,3.759568254967149969e-01,3.653616258958914398e-01,2.423777396882827451e-01,4.493571102258102079e-01,3.971741196303685967e-02,2.963828916039042971e-01,3.161673526295584735e-01,1.486718885148081426e-01,2.264229144462091003e-01,3.624224265675939916e-01,5.149763879002933198e-01,4.813283314835081761e-01,5.793344796723750439e-02,2.048637637829300029e-01,4.559517694951289446e-01,8.188270816301199129e-02,2.115294237247377362e-01,8.247086529613668893e-02,3.360503961469323286e-01,2.522176940391160915e-01,4.068353450135747673e-01,1.195315048365221400e-01,1.948197962638244796e-01,1.953298060265845071e-01,4.624923718902670400e-01,2.299484370788575371e-01,2.384665008666661812e-01,0.000000000000000000e+00,0.000000000000000000e+00,0.000000000000000000e+00,0.000000000000000000e+00,0.000000000000000000e+00,0.000000000000000000e+00,0.000000000000000000e+00,0.000000000000000000e+00,0.000000000000000000e+00,0.000000000000000000e+00,0.000000000000000000e+00,0.000000000000000000e+00,0.000000000000000000e+00,0.000000000000000000e+00,0.000000000000000000e+00,0.000000000000000000e+00,0.000000000000000000e+00,0.000000000000000000e+00,0.000000000000000000e+00,0.000000000000000000e+00,0.000000000000000000e+00,0.000000000000000000e+00,0.000000000000000000e+00,0.000000000000000000e+00,0.000000000000000000e+00,0.000000000000000000e+00,0.000000000000000000e+00,0.000000000000000000e+00,0.000000000000000000e+00,0.000000000000000000e+00,0.000000000000000000e+00,0.000000000000000000e+00,0.000000000000000000e+00,0.000000000000000000e+00,0.000000000000000000e+00,0.000000000000000000e+00,0.000000000000000000e+00,0.000000000000000000e+00,0.000000000000000000e+00,0.000000000000000000e+00,0.000000000000000000e+00,0.000000000000000000e+00,0.000000000000000000e+00,0.000000000000000000e+00,0.000000000000000000e+00,0.000000000000000000e+00,0.000000000000000000e+00,0.000000000000000000e+00,0.000000000000000000e+00,0.000000000000000000e+00,0.000000000000000000e+00,0.000000000000000000e+00,0.000000000000000000e+00,0.000000000000000000e+00,0.000000000000000000e+00,0.000000000000000000e+00,0.000000000000000000e+00,0.000000000000000000e+00,0.000000000000000000e+00,0.000000000000000000e+00,0.000000000000000000e+00,0.000000000000000000e+00,0.000000000000000000e+00,0.000000000000000000e+00,0.000000000000000000e+00,0.000000000000000000e+00,0.000000000000000000e+00,0.000000000000000000e+00,0.000000000000000000e+00,0.000000000000000000e+00,0.000000000000000000e+00,0.000000000000000000e+00,0.000000000000000000e+00,0.000000000000000000e+00
5.577321529478244250e-02,3.998681484271990882e-01,7.021849689207007028e-01,9.201356187605952419e-02,1.599736296854398221e-01,4.196270484083631791e-01,1.001130156338293498e-01,9.195705405914485209e-02,3.976266716895836967e-02,1.915049915238274669e-01,4.019589376530419839e-02,2.696553023168204999e-01,1.428894330382369515e-01,5.540779807873422724e-01,7.344132605010360304e-02,2.408363156903371716e-01,2.806554906762102203e-03,2.187605952156715106e-01,9.915238274627989623e-02,3.830664908645696198e-01,4.032209455641363460e-01,5.200602750047089717e-02,5.528348088152194029e-01,1.715954040308909426e-02,2.224524392540968079e-02,2.608400828781314851e-01,2.827839517799962121e-01,1.830099830476549227e-01,4.375776982482576516e-01,6.615181766811074893e-02,2.507816914673196562e-01,9.935957807496703653e-01,6.207195328687135083e-01,2.278206818609907758e-01,2.817479751365605800e-01,6.232247127519306984e-01,5.215294782444904742e-01,5.631945752495762236e-02,3.365040497268788622e-01,2.914296477679412245e-01,3.752119043134300447e-01,1.250141269542286715e-01,5.577321529478244250e-02,3.998681484271990882e-01,7.021849689207007028e-01,9.201356187605952419e-02,1.599736296854398221e-01,4.196270484083631791e-01,1.001130156338293498e-01,9.195705405914485209e-02,3.976266716895836967e-02,1.915049915238274669e-01,4.019589376530419839e-02,2.696553023168204999e-01,1.428894330382369515e-01,5.540779807873422724e-01,7.344132605010360304e-02,2.408363156903371716e-01,2.806554906762102203e-03,2.187605952156715106e-01,9.915238274627989623e-02,3.830664908645696198e-01,4.032209455641363460e-01,5.200602750047089717e-02,5.528348088152194029e-01,1.715954040308909426e-02,2.224524392540968079e-02,2.608400828781314851e-01,2.827839517799962121e-01,1.830099830476549227e-01,4.375776982482576516e-01,6.615181766811074893e-02,6.559928815691562498e-02,3.922352926051219657e-01,6.680939438372844874e-01,1.492540829946316372e-01,3.239610722696133482e-01,4.082797521161282694e-01,1.206553692125103966e-01,8.743842416567441933e-02,1.289582458640525509e-01,2.022416230042168028e-01,4.876502558990097186e-02,2.664942982430090757e-01,1.511669992447552680e-01,5.627675335166075765e-01,8.703737822620925824e-02,2.290022255253319483e-01,4.037677459343810837e-02,1.939858784413170667e-01,8.906082461803560557e-02,3.998189584435028476e-01,3.934747303195855195e-01,3.572038523182955588e-02,5.403406642047511310e-01,2.115510023469848594e-02,1.645684183891101549e-01,2.636659474838698447e-01,2.767634391707887720e-01,2.159152489836334010e-01,3.919386248426184327e-01,1.439647239817989921e-01,1.972348098218680013e-01,9.247531887705014997e-01,5.990844853111534363e-01,2.303420161269682798e-01,2.848378470353682412e-01,5.670981938162407143e-01,5.073585851192384810e-01,4.670808330071805903e-02,3.282207842548210408e-01,3.482067654988730276e-01,3.711623944447366985e-01,3.010825058326095927e-01,6.559928815691562498e-02,3.922352926051219657e-01,6.680939438372844874e-01,1.492540829946316372e-01,3.239610722696133482e-01,4.082797521161282694e-01,1.206553692125103966e-01,8.743842416567441933e-02,1.289582458640525509e-01,2.022416230042168028e-01,4.876502558990097186e-02,2.664942982430090757e-01,1.511669992447552680e-01,5.627675335166075765e-01,8.703737822620925824e-02,2.290022255253319483e-01,4.037677459343810837e-02,1.939858784413170667e-01,8.906082461803560557e-02,3.998189584435028476e-01,3.934747303195855195e-01,3.572038523182955588e-02,5.403406642047511310e-01,2.115510023469848594e-02,1.645684183891101549e-01,2.636659474838698447e-01,2.767634391707887720e-01,2.159152489836334010e-01,3.919386248426184327e-01,1.439647239817989921e-01,7.414704148384022864e-02,3.810656184429522253e-01,5.839196933881075635e-01,2.414342560041540242e-01,5.259428013663780543e-01,3.771172492446743241e-01,1.765534748727931313e-01,7.274372322849512185e-02,2.254986083090197435e-01,2.311300969052103860e-01,7.005909591130841940e-02,2.438558500917459848e-01,1.719742500274803187e-01,5.812572179763598745e-01,9.761187618442115910e-02,2.096000154410050942e-01,8.829021375503878777e-02,1.351521632149922936e-01,1.001396061628949119e-01,4.240638174856078413e-01,3.710709018529328995e-01,8.383490639157654967e-02,5.037062244901714392e-01,1.165207638051162509e-01,3.117832154207258455e-01,2.681996700939051625e-01,2.585854605264221173e-01,2.970243496536036365e-01,2.682962713262441179e-01,2.200823618178756880e-01,6.242937989222298312e-02,7.371235471641229831e-01,5.373338780162101314e-01,2.295382267285024924e-01,2.808321995571906871e-01,4.181154330618353510e-01,4.681328662983257893e-01,6.150224863331022612e-02,3.038769855393538832e-01,4.440717566631781632e-01,3.606817147588894379e-01,5.241533897399884845e-01,7.414704148384022864e-02,3.810656184429522253e-01,5.839196933881075635e-01,2.414342560041540242e-01,5.259428013663780543e-01,3.771172492446743241e-01,1.765534748727931313e-01,7.274372322849512185e-02,2.254986083090197435e-01,2.311300969052103860e-01,7.005909591130841940e-02,2.438558500917459848e-01,1.719742500274803187e-01,5.812572179763598745e-01,9.761187618442115910e-02,2.096000154410050942e-01,8.829021375503878777e-02,1.351521632149922936e-01,1.001396061628949119e-01,4.240638174856078413e-01,3.710709018529328995e-01,8.383490639157654967e-02,5.037062244901714392e-01,1.165207638051162509e-01,3.117832154207258455e-01,2.681996700939051625e-01,2.585854605264221173e-01,2.970243496536036365e-01,2.682962713262441179e-01,2.200823618178756880e-01,9.650747513488285023e-02,3.908046164681547308e-01,4.957778029608650439e-01,3.187940898029250070e-01,6.329811826365451255e-01,3.340650960651330714e-01,2.495920699370860196e-01,5.401473860508138741e-02,2.820873534909526525e-01,2.716983002674074332e-01,9.969451944947645139e-02,1.800430378119395602e-01,1.957384525431014322e-01,5.930440416297232398e-01,7.443690068751454558e-02,2.156125144706604047e-01,1.360144555805577193e-01,1.093398577714719822e-01,1.779980051587324863e-01,4.135094398818383032e-01,3.516649332887041846e-01,2.020436222555007655e-01,4.458906671310211012e-01,2.440944801654127139e-01,4.262366810149921803e-01,2.664124407243366743e-01,2.281337646895963134e-01,3.909767229565447866e-01,1.128333865798540198e-01,2.243296934084765271e-01,1.668572575184723294e-01,4.828372492593248078e-01,4.456410220572687986e-01,2.114642666672580662e-01,2.495570286845371633e-01,2.510989381205054327e-01,4.126595883634838202e-01,1.255539006077237840e-01,2.655401561823259038e-01,4.931798310265574359e-01,3.482266548774635151e-01,6.856342390179622770e-01,9.650747513488285023e-02,3.908046164681547308e-01,4.957778029608650439e-01,3.187940898029250070e-01,6.329811826365451255e-01,3.340650960651330714e-01,2.495920699370860196e-01,5.401473860508138741e-02,2.820873534909526525e-01,2.716983002674074332e-01,9.969451944947645139e-02,1.800430378119395602e-01,1.957384525431014322e-01,5.930440416297232398e-01,7.443690068751454558e-02,2.156125144706604047e-01,1.360144555805577193e-01,1.093398577714719822e-01,1.779980051587324863e-01,4.135094398818383032e-01,3.516649332887041846e-01,2.020436222555007655e-01,4.458906671310211012e-01,2.440944801654127139e-01,4.262366810149921803e-01,2.664124407243366743e-01,2.281337646895963134e-01,3.909767229565447866e-01,1.128333865798540198e-01,2.243296934084765271e-01,1.919115273960361745e-01,4.294317131740698623e-01,4.432594608997467156e-01,3.649032281487991081e-01,6.200950695804778867e-01,2.897895496923389991e-01,3.140279664411292915e-01,6.903776766708290269e-02,2.869448656225353500e-01,3.168991549999817248e-01,1.364572631516570989e-01,9.160274411425081698e-02,2.107209460451162364e-01,5.839565621151600050e-01,4.370928678348236229e-02,2.478615279316506437e-01,1.639841296175132135e-01,1.689225656610902071e-01,2.825083655691479900e-01,3.502780734824416653e-01,3.459346000512611985e-01,3.362312293861344226e-01,3.727746082968284580e-01,3.644993049478895686e-01,4.878200173968236242e-01,2.526933953845682534e-01,1.859603025425584366e-01,4.586394010315115732e-01,1.244142923981561843e-01,1.479407172847599927e-01,3.661122084323477632e-01,2.389386721796663560e-01,3.441118674207300776e-01,1.745554412988995219e-01,1.958128096893470560e-01,2.587341953169470243e-01,3.521402428575521881e-01,1.987627425362233635e-01,2.179524968575446697e-01,4.633818955403689599e-01,3.388784539880950741e-01,7.620917583887416580e-01,1.919115273960361745e-01,4.294317131740698623e-01,4.432594608997467156e-01,3.649032281487991081e-01,6.200950695804778867e-01,2.897895496923389991e-01,3.140279664411292915e-01,6.903776766708290269e-02,2.869448656225353500e-01,3.168991549999817248e-01,1.364572631516570989e-01,9.160274411425081698e-02,2.107209460451162364e-01,5.839565621151600050e-01,4.370928678348236229e-02,2.478615279316506437e-01,1.639841296175132135e-01,1.689225656610902071e-01,2.825083655691479900e-01,3.502780734824416653e-01,3.459346000512611985e-01,3.362312293861344226e-01,3.727746082968284580e-01,3.644993049478895686e-01,4.878200173968236242e-01,2.526933953845682534e-01,1.859603025425584366e-01,4.586394010315115732e-01,1.244142923981561843e-01,1.479407172847599927e-01,3.428990431772994674e-01,4.757408983918413048e-01,4.110594459723423966e-01,3.725936988355329493e-01,5.019360747956477242e-01,2.535344989381445036e-01,3.451396192473780711e-01,1.222944383680565489e-01,2.389128906023497978e-01,3.568361532217088627e-01,1.791221179602199842e-01,1.711599437877012742e-01,2.053626649570848006e-01,5.495027079762473399e-01,1.244481217304995030e-01,2.722703723114405228e-01,1.513251215517331660e-01,2.336091387114248019e-01,3.771838784004643008e-01,2.492183079697740666e-01,3.486116523450401017e-01,4.544103313192478510e-01,2.934245080750940704e-01,4.415016233227281317e-01,4.813211608502289685e-01,2.269097589784404012e-01,1.345009359541278482e-01,4.654039903685095458e-01,2.432123228389368175e-01,5.140670481944197012e-02,5.144027767911889537e-01,1.273176452627022559e-01,2.690871952532762901e-01,1.423904976525796895e-01,1.732349731610567101e-01,4.156947983403653790e-01,2.954735954008402832e-01,2.643952773967677694e-01,1.690388466658404587e-01,3.606731152114294736e-01,3.347166881703874664e-01,7.524060717961713607e-01,3.428990431772994674e-01,4.757408983918413048e-01,4.110594459723423966e-01,3.725936988355329493e-01,5.019360747956477242e-01,2.535344989381445036e-01,3.451396192473780711e-01,1.222944383680565489e-01,2.389128906023497978e-01,3.568361532217088627e-01,1.791221179602199842e-01,1.711599437877012742e-01,2.053626649570848006e-01,5.495027079762473399e-01,1.244481217304995030e-01,2.722703723114405228e-01,1.513251215517331660e-01,2.336091387114248019e-01,3.771838784004643008e-01,2.492183079697740666e-01,3.486116523450401017e-01,4.544103313192478510e-01,2.934245080750940704e-01,4.415016233227281317e-01,4.813211608502289685e-01,2.269097589784404012e-01,1.345009359541278482e-01,4.654039903685095458e-01,2.432123228389368175e-01,5.140670481944197012e-02,5.048463387107837708e-01,5.009448229899036154e-01,3.470772935361303713e-01,3.443149715057025051e-01,3.216932882480200151e-01,2.283873204483599095e-01,3.267246983843326569e-01,1.772847794069488947e-01,1.456214450320426901e-01,3.779332978918503172e-01,2.242908369628022480e-01,3.541517926740239131e-01,1.726561645303872905e-01,4.974321837288046555e-01,2.334414707707018477e-01,2.672355232853747542e-01,8.465756769791943359e-02,2.572514947396843943e-01,4.388129981454758077e-01,1.575258268771925763e-01,3.462819365709293162e-01,5.283918708084158755e-01,2.190467436770067444e-01,4.523581236731079036e-01,4.041289187796371918e-01,1.932382178988064358e-01,8.173956498962849093e-02,3.922868355407560514e-01,2.940913830439358945e-01,1.823839963644428852e-01,5.724978523777385364e-01,1.587767756712404332e-01,2.627358862754964886e-01,1.536105975727671824e-01,2.228193399551137155e-01,5.434113826880311304e-01,2.452048257143306376e-01,3.231303931635465254e-01,1.284839786056047040e-01,2.282916078403388060e-01,3.329319968885981473e-01,6.744189001039299081e-01,5.048463387107837708e-01,5.009448229899036154e-01,3.470772935361303713e-01,3.443149715057025051e-01,3.216932882480200151e-01,2.283873204483599095e-01,3.267246983843326569e-01,1.772847794069488947e-01,1.456214450320426901e-01,3.779332978918503172e-01,2.242908369628022480e-01,3.541517926740239131e-01,1.726561645303872905e-01,4.974321837288046555e-01,2.334414707707018477e-01,2.672355232853747542e-01,8.465756769791943359e-02,2.572514947396843943e-01,4.388129981454758077e-01,1.575258268771925763e-01,3.462819365709293162e-01,5.283918708084158755e-01,2.190467436770067444e-01,4.523581236731079036e-01,4.041289187796371918e-01,1.932382178988064358e-01,8.173956498962849093e-02,3.922868355407560514e-01,2.940913830439358945e-01,1.823839963644428852e-01,6.327085922198129042e-01,4.876612801241063111e-01,2.210244931906798493e-01,2.943222711113478995e-01,1.385039587496890989e-01,2.104845154139955432e-01,2.563640851993935210e-01,2.088648981528989368e-01,2.171263144722002797e-02,3.665309064082047930e-01,2.656272256517130392e-01,5.250164283521666642e-01,1.233660221817105412e-01,4.456216569548266948e-01,3.191086943543154364e-01,2.448432102716502079e-01,4.078464905320442618e-02,2.298982104416552597e-01,4.538100499547832456e-01,1.359422897047366519e-01,3.327847449343099284e-01,5.386700712898349064e-01,1.602945368343352550e-01,3.948542119186545518e-01,2.734100217233990104e-01,1.575353417575906523e-01,5.981951777005824200e-02,2.457777187639931804e-01,2.520631633155363538e-01,3.239615900129503845e-01,5.286150971685174005e-01,1.428079352795858514e-01,3.127668701387370520e-01,1.944610136330194305e-01,2.785859612134970464e-01,5.935052663602349288e-01,1.979348649323609266e-01,3.826708207533798811e-01,1.025643846567124984e-01,1.780865451769548247e-01,3.284489865519536478e-01,5.609288832180010509e-01,6.327085922198129042e-01,4.876612801241063111e-01,2.210244931906798493e-01,2.943222711113478995e-01,1.385039587496890989e-01,2.104845154139955432e-01,2.563640851993935210e-01,2.088648981528989368e-01,2.171263144722002797e-02,3.665309064082047930e-01,2.656272256517130392e-01,5.250164283521666642e-01,1.233660221817105412e-01,4.456216569548266948e-01,3.191086943543154364e-01,2.448432102716502079e-01,4.078464905320442618e-02,2.298982104416552597e-01,4.538100499547832456e-01,1.359422897047366519e-01,3.327847449343099284e-01,5.386700712898349064e-01,1.602945368343352550e-01,3.948542119186545518e-01,2.734100217233990104e-01,1.575353417575906523e-01,5.981951777005824200e-02,2.457777187639931804e-01,2.520631633155363538e-01,3.239615900129503845e-01,6.878340341812798631e-01,4.344657514678010868e-01,4.817339258125589302e-02,2.466931340943903650e-01,4.374763663563611266e-02,1.938717165559316058e-01,1.496105465751781938e-01,1.991154895599830943e-01,1.170950591461262513e-01,3.146835930458375952e-01,2.947175247116300412e-01,6.366392813340983059e-01,1.273367972508432089e-01,4.116205621393290714e-01,3.512097274060448360e-01,2.509590087204162656e-01,2.019043112214195801e-01,1.685344461352157874e-01,4.181869647779483667e-01,1.454399898903744603e-01,3.143627564728931345e-01,4.803060532623434353e-01,1.229867163532904623e-01,2.896713581877415900e-01,1.444943459382611040e-01,1.316411932861570322e-01,9.772247833027453146e-02,9.410281653218842413e-02,1.331603943153136238e-01,3.998213596381762214e-01,3.993300696528148119e-01,1.104692743836392654e-01,3.686506595136875286e-01,2.208227849086455696e-01,2.777396251716090503e-01,5.664945107422789672e-01,1.495317330526721167e-01,4.406986756918594428e-01,8.740299638634770052e-02,2.567059631265586339e-01,3.179858232001488427e-01,4.504094728387814661e-01,6.878340341812798631e-01,4.344657514678010868e-01,4.817339258125589302e-02,2.466931340943903650e-01,4.374763663563611266e-02,1.938717165559316058e-01,1.496105465751781938e-01,1.991154895599830943e-01,1.170950591461262513e-01,3.146835930458375952e-01,2.947175247116300412e-01,6.366392813340983059e-01,1.273367972508432089e-01,4.116205621393290714e-01,3.512097274060448360e-01,2.509590087204162656e-01,2.019043112214195801e-01,1.685344461352157874e-01,4.181869647779483667e-01,1.454399898903744603e-01,3.143627564728931345e-01,4.803060532623434353e-01,1.229867163532904623e-01,2.896713581877415900e-01,1.444943459382611040e-01,1.316411932861570322e-01,9.772247833027453146e-02,9.410281653218842413e-02,1.331603943153136238e-01,3.998213596381762214e-01,6.473389998039298376e-01,3.543528306915532111e-01,1.657171902143272368e-01,2.196804959446952143e-01,7.477007076428492105e-02,1.747900500496819831e-01,7.890579903986576216e-02,1.391793133478143041e-01,2.480415620195697279e-01,2.250525153002046752e-01,3.034080012513357683e-01,6.587887141810502278e-01,2.231662304392363905e-01,3.951197873543855765e-01,3.147085302838800169e-01,3.112330773723567257e-01,3.776543382375522340e-01,1.336194940836409051e-01,3.370439553600979576e-01,1.144131946475466094e-01,3.020925643032327246e-01,3.678144296590789009e-01,1.052909769963547015e-01,1.849766336981635007e-01,1.626975515990252141e-01,1.487011189861781879e-01,1.484723677105173612e-01,2.077600572856392325e-01,1.358974406605033269e-01,3.833079916658468367e-01,2.265053243672712213e-01,1.993357068890524442e-01,4.011673796998951880e-01,2.105678301330850544e-01,1.946296368668403998e-01,4.852223927833763106e-01,9.960135803289332790e-02,4.775340084388395856e-01,7.290503169278406137e-02,3.264212205369269593e-01,3.002778915508512725e-01,3.682686842934953519e-01,6.473389998039298376e-01,3.543528306915532111e-01,1.657171902143272368e-01,2.196804959446952143e-01,7.477007076428492105e-02,1.747900500496819831e-01,7.890579903986576216e-02,1.391793133478143041e-01,2.480415620195697279e-01,2.250525153002046752e-01,3.034080012513357683e-01,6.587887141810502278e-01,2.231662304392363905e-01,3.951197873543855765e-01,3.147085302838800169e-01,3.112330773723567257e-01,3.776543382375522340e-01,1.336194940836409051e-01,3.370439553600979576e-01,1.144131946475466094e-01,3.020925643032327246e-01,3.678144296590789009e-01,1.052909769963547015e-01,1.849766336981635007e-01,1.626975515990252141e-01,1.487011189861781879e-01,1.484723677105173612e-01,2.077600572856392325e-01,1.358974406605033269e-01,3.833079916658468367e-01,5.105650767427060144e-01,2.716389593477371855e-01,3.367976622943995024e-01,2.016471144906285817e-01,3.753664750105116521e-02,1.512128964491841199e-01,1.657890740176756750e-01,3.249000646435645789e-02,3.517175330594397020e-01,1.142576782545292186e-01,2.869623346772696149e-01,5.812790222007864216e-01,3.390442955568606087e-01,3.741823299352144971e-01,2.196381016421375953e-01,3.897344816444686666e-01,5.315528282203041410e-01,1.827950830479726507e-01,2.238965098939658116e-01,3.903320974406700866e-02,2.984739290700245684e-01,2.430412209131997403e-01,1.027823502834276231e-01,1.673370972864498818e-01,2.594494038206368591e-01,2.293694617388781498e-01,1.892782488211520731e-01,3.632618620264132514e-01,3.417219222971431547e-01,2.756106451616217035e-01,1.025251452066777008e-01,3.114137214624269068e-01,4.030930702604534899e-01,1.679997222371656385e-01,4.960268614594387504e-02,3.811901925389263868e-01,5.117742502110594893e-02,4.671734331780534322e-01,5.388706537334520680e-02,3.286804925652860865e-01,2.718413182715723742e-01,3.074907110096731233e-01,5.105650767427060144e-01,2.716389593477371855e-01,3.367976622943995024e-01,2.016471144906285817e-01,3.753664750105116521e-02,1.512128964491841199e-01,1.657890740176756750e-01,3.249000646435645789e-02,3.517175330594397020e-01,1.142576782545292186e-01,2.869623346772696149e-01,5.812790222007864216e-01,3.390442955568606087e-01,3.741823299352144971e-01,2.196381016421375953e-01,3.897344816444686666e-01,5.315528282203041410e-01,1.827950830479726507e-01,2.238965098939658116e-01,3.903320974406700866e-02,2.984739290700245684e-01,2.430412209131997403e-01,1.027823502834276231e-01,1.673370972864498818e-01,2.594494038206368591e-01,2.293694617388781498e-01,1.892782488211520731e-01,3.632618620264132514e-01,3.417219222971431547e-01,2.756106451616217035e-01,2.999084544601824387e-01,2.165773128541338688e-01,4.407565078358930410e-01,1.617150798095798314e-01,7.335596138709027381e-02,1.208175166412395335e-01,2.671411218170557933e-01,1.070418052565835776e-01,4.092639885383576037e-01,4.996890666842037504e-02,2.471928625565946724e-01,4.162368567437513822e-01,4.285689927800777621e-01,3.232727789803792606e-01,1.441326927797965674e-01,4.449496552729871324e-01,6.290808615621306110e-01,2.516680700232862833e-01,1.059428395816535001e-01,9.239375108933729763e-02,2.957325391708384710e-01,1.930365273336179799e-01,1.138232106209697281e-01,2.364007111775336401e-01,3.085502189563411046e-01,3.492150989244202086e-01,2.124921153423493803e-01,4.367566712815151853e-01,5.448070813919162481e-01,1.115441343415378012e-01,1.738428191735144346e-01,3.549206537951596352e-01,3.797130259239475669e-01,1.382725273904959473e-01,1.975026927701365453e-01,2.855144376643213300e-01,1.811670870034138431e-02,3.955410417747194929e-01,3.731140149642499931e-02,2.591962711805043673e-01,2.237181501931509164e-01,2.428813321665286296e-01,2.999084544601824387e-01,2.165773128541338688e-01,4.407565078358930410e-01,1.617150798095798314e-01,7.335596138709027381e-02,1.208175166412395335e-01,2.671411218170557933e-01,1.070418052565835776e-01,4.092639885383576037e-01,4.996890666842037504e-02,2.471928625565946724e-01,4.162368567437513822e-01,4.285689927800777621e-01,3.232727789803792606e-01,1.441326927797965674e-01,4.449496552729871324e-01,6.290808615621306110e-01,2.516680700232862833e-01,1.059428395816535001e-01,9.239375108933729763e-02,2.957325391708384710e-01,1.930365273336179799e-01,1.138232106209697281e-01,2.364007111775336401e-01,3.085502189563411046e-01,3.492150989244202086e-01,2.124921153423493803e-01,4.367566712815151853e-01,5.448070813919162481e-01,1.115441343415378012e-01,5.793344796723750439e-02,2.048637637829300029e-01,4.559517694951289446e-01,8.188270816301199129e-02,2.115294237247377362e-01,8.247086529613668893e-02,3.360503961469323286e-01,2.522176940391160915e-01,4.068353450135747673e-01,1.195315048365221400e-01,1.948197962638244796e-01,1.953298060265845071e-01,4.624923718902670400e-01,2.299484370788575371e-01,2.384665008666661812e-01,4.574684715178021777e-01,6.449975862224950340e-01,2.900501148893731562e-01,9.022083657738640128e-02,1.985415216970704277e-01,2.915615960819333830e-01,2.459984706231048979e-01,1.357705260473296704e-01,3.135895703539223756e-01,2.889654640577859479e-01,4.767201514333485601e-01,2.156505199288622221e-01,4.015270020105171089e-01,6.928639289338132112e-01,1.313399391754923318e-01,2.570270881213780889e-01,2.953366627782887388e-01,3.409698316102187654e-01,1.855711899068624438e-01,4.185859489141970924e-01,2.298524951204376221e-01,5.853752855129808891e-02,2.841740383080060828e-01,5.422887438836449664e-02,1.411026590109339951e-01,1.447030565450131701e-01,1.777957475088389472e-01,5.793344796723750439e-02,2.048637637829300029e-01,4.559517694951289446e-01,8.188270816301199129e-02,2.115294237247377362e-01,8.247086529613668893e-02,3.360503961469323286e-01,2.522176940391160915e-01,4.068353450135747673e-01,1.195315048365221400e-01,1.948197962638244796e-01,1.953298060265845071e-01,4.624923718902670400e-01,2.299484370788575371e-01,2.384665008666661812e-01,4.574684715178021777e-01,6.449975862224950340e-01,2.900501148893731562e-01,9.022083657738640128e-02,1.985415216970704277e-01,2.915615960819333830e-01,2.459984706231048979e-01,1.357705260473296704e-01,3.135895703539223756e-01,2.889654640577859479e-01,4.767201514333485601e-01,2.156505199288622221e-01,4.015270020105171089e-01,6.928639289338132112e-01,1.313399391754923318e-01,0.000000000000000000e+00,0.000000000000000000e+00,0.000000000000000000e+00,0.000000000000000000e+00,0.000000000000000000e+00,0.000000000000000000e+00,0.000000000000000000e+00,0.000000000000000000e+00,0.000000000000000000e+00,0.000000000000000000e+00,0.000000000000000000e+00,0.000000000000000000e+00,0.000000000000000000e+00,0.000000000000000000e+00,0.000000000000000000e+00,0.000000000000000000e+00,0.000000000000000000e+00,0.000000000000000000e+00,0.000000000000000000e+00,0.000000000000000000e+00,0.000000000000000000e+00,0.000000000000000000e+00,0.000000000000000000e+00,0.000000000000000000e+00,0.000000000000000000e+00,0.000000000000000000e+00,0.000000000000000000e+00,0.000000000000000000e+00,0.000000000000000000e+00,0.000000000000000000e+00,0.000000000000000000e+00,0.000000000000000000e+00,0.000000000000000000e+00,0.000000000000000000e+00,0.000000000000000000e+00,0.000000000000000000e+00,0.000000000000000000e+00,0.000000000000000000e+00,0.000000000000000000e+00,0.000000000000000000e+00,0.000000000000000000e+00,0.000000000000000000e+00,0.000000000000000000e+00,0.000000000000000000e+00,0.000000000000000000e+00,0.000000000000000000e+00,0.000000000000000000e+00,0.000000000000000000e+00,0.000000000000000000e+00,0.000000000000000000e+00,0.000000000000000000e+00,0.000000000000000000e+00,0.000000000000000000e+00,0.000000000000000000e+00,0.000000000000000000e+00,0.000000000000000000e+00,0.000000000000000000e+00,0.000000000000000000e+00,0.000000000000000000e+00,0.000000000000000000e+00,0.000000000000000000e+00,0.000000000000000000e+00,0.000000000000000000e+00,0.000000000000000000e+00,0.000000000000000000e+00,0.000000000000000000e+00,0.000000000000000000e+00,0.000000000000000000e+00,0.000000000000000000e+00,0.000000000000000000e+00,0.000000000000000000e+00,0.000000000000000000e+00,0.000000000000000000e+00,0.000000000000000000e+00
