2.294506722233426999e-01,3.616660083994437391e-01,4.097068566329538086e-01,4.843226166251379805e-02,3.940503194728047220e-01,5.249884118279463108e-01,2.881008844535327684e-01,2.093443823966249506e-01,9.233236783130023551e-02,1.871162197705711905e-01,6.386219104797651730e-04,4.696137119773137192e-01,6.175885888475122210e-01,1.939968558383209085e-01,3.110088704036456098e-01,9.486625476642962518e-02,2.465904602723480166e-01,3.844503901088185960e-01,1.098017671889402608e-01,1.467800358763976243e-01,2.222816262605376014e-02,1.824398593293161397e-01,3.478223334367856467e-01,8.812982364620758347e-02,2.042972092331558354e-01,1.998268558597974739e-02,1.071854774266521870e-01,4.086562205866806630e-01,2.472290821828277696e-01,2.658521211206893442e-01,1.670099299438534135e-01,4.988049134982758814e-01,3.230190824620231271e-02,2.551191528832713051e-01,2.439741705100599567e-01,3.868812735099996097e-02,3.194139587738308861e-01,2.294506722233426999e-01,3.616660083994437391e-01,4.097068566329538086e-01,4.843226166251379805e-02,3.940503194728047220e-01,5.249884118279463108e-01,2.881008844535327684e-01,2.093443823966249506e-01,9.233236783130023551e-02,1.871162197705711905e-01,6.386219104797651730e-04,4.696137119773137192e-01,6.175885888475122210e-01,1.939968558383209085e-01,3.110088704036456098e-01,9.486625476642962518e-02,2.465904602723480166e-01,3.844503901088185960e-01,1.098017671889402608e-01,1.467800358763976243e-01,2.222816262605376014e-02,1.824398593293161397e-01,3.478223334367856467e-01,8.812982364620758347e-02,2.042972092331558354e-01,1.998268558597974739e-02,1.071854774266521870e-01,4.086562205866806630e-01,2.472290821828277696e-01,2.658521211206893442e-01,1.670099299438534135e-01,4.988049134982758814e-01,3.230190824620231271e-02,2.551191528832713051e-01,2.439741705100599567e-01,2.381081267817413138e-01,3.711429675817473628e-01,3.845787382432307444e-01,1.052994302697256163e-01,3.544570622982162189e-01,5.095406129819822771e-01,2.627527255724087518e-01,2.357308590469730791e-01,1.511679863770479526e-01,1.977740055358368221e-01,2.045384250338247098e-02,4.602469540549664062e-01,5.712171378224407681e-01,2.183564359313724668e-01,3.604870161459892697e-01,3.217379583695652578e-01,2.302763868901123723e-01,3.325466778441766857e-01,1.631073343100709339e-01,2.092901559483824614e-01,3.948750189939029265e-02,1.945047432077384175e-01,3.584422229452036701e-01,2.050809018495103886e-01,2.382677398443504291e-01,1.325462209951618620e-01,1.597818766439978999e-01,3.677066457590011384e-01,2.337741779855726787e-01,2.263880051276089822e-01,1.483591968745171796e-01,4.708835977424036257e-01,3.073493059632916302e-01,2.385850812624684680e-01,2.373261657385576373e-01,2.388710586020149906e-02,3.167529485900543729e-01,2.381081267817413138e-01,3.711429675817473628e-01,3.845787382432307444e-01,1.052994302697256163e-01,3.544570622982162189e-01,5.095406129819822771e-01,2.627527255724087518e-01,2.357308590469730791e-01,1.511679863770479526e-01,1.977740055358368221e-01,2.045384250338247098e-02,4.602469540549664062e-01,5.712171378224407681e-01,2.183564359313724668e-01,3.604870161459892697e-01,3.217379583695652578e-01,2.302763868901123723e-01,3.325466778441766857e-01,1.631073343100709339e-01,2.092901559483824614e-01,3.948750189939029265e-02,1.945047432077384175e-01,3.584422229452036701e-01,2.050809018495103886e-01,2.382677398443504291e-01,1.325462209951618620e-01,1.597818766439978999e-01,3.677066457590011384e-01,2.337741779855726787e-01,2.263880051276089822e-01,1.483591968745171796e-01,4.708835977424036257e-01,3.073493059632916302e-01,2.385850812624684680e-01,2.373261657385576373e-01,2.415936138390123999e-01,3.925465432024315970e-01,3.144170838870092854e-01,1.715399329986357635e-01,2.551157116100925548e-01,4.647428183070165808e-01,1.991719782495157964e-01,3.034399699333031886e-01,2.363056314692352777e-01,2.241585859507399803e-01,5.034952612461607302e-02,4.323020599045938606e-01,4.456322801502813902e-01,2.731699392422353156e-01,4.472422416285656288e-01,5.544553158099045920e-01,2.015577042772890570e-01,1.917511981493326412e-01,2.209953232443068183e-01,3.039922016680524641e-01,7.457245370395086670e-02,2.059357714954579699e-01,3.888002857987742367e-01,3.245588045744870476e-01,3.247480896490494984e-01,2.521565242290181863e-01,2.395178310111890085e-01,2.712288573193148422e-01,2.047633647939369195e-01,1.667585328928238297e-01,1.495564137778150893e-01,3.953707748597868332e-01,5.577595042517407009e-01,1.956344729106645197e-01,2.088750475584850164e-01,4.113368543163477969e-02,3.038751602365332705e-01,2.415936138390123999e-01,3.925465432024315970e-01,3.144170838870092854e-01,1.715399329986357635e-01,2.551157116100925548e-01,4.647428183070165808e-01,1.991719782495157964e-01,3.034399699333031886e-01,2.363056314692352777e-01,2.241585859507399803e-01,5.034952612461607302e-02,4.323020599045938606e-01,4.456322801502813902e-01,2.731699392422353156e-01,4.472422416285656288e-01,5.544553158099045920e-01,2.015577042772890570e-01,1.917511981493326412e-01,2.209953232443068183e-01,3.039922016680524641e-01,7.457245370395086670e-02,2.059357714954579699e-01,3.888002857987742367e-01,3.245588045744870476e-01,3.247480896490494984e-01,2.521565242290181863e-01,2.395178310111890085e-01,2.712288573193148422e-01,2.047633647939369195e-01,1.667585328928238297e-01,1.495564137778150893e-01,3.953707748597868332e-01,5.577595042517407009e-01,1.956344729106645197e-01,2.088750475584850164e-01,2.036881087063698581e-01,4.171303471877543245e-01,2.170700024563943509e-01,2.011953629457013670e-01,1.641039254708601125e-01,3.946680458100735311e-01,1.580688412568609647e-01,3.883261899299254027e-01,2.860609712214590705e-01,2.553878044347192566e-01,9.684867640547689671e-02,3.856780420645656848e-01,2.909073849957888314e-01,3.296440470782014409e-01,4.950836767274119921e-01,6.718088294686913597e-01,2.068221403211082388e-01,3.580489466901512485e-02,2.090536698628830403e-01,3.580832886859107722e-01,1.235819371024785424e-01,1.821508850349198294e-01,4.276832524074958841e-01,3.520712731141121266e-01,4.304317273059884430e-01,3.491218325363443786e-01,2.909405810476797805e-01,2.194440458331886890e-01,1.892277778069702820e-01,2.453712081751479313e-01,2.507185967185197040e-01,2.948155730301802446e-01,7.117524561873482813e-01,1.510203914677536174e-01,1.444309002097740047e-01,1.303563123185897399e-01,2.708648594812442245e-01,2.036881087063698581e-01,4.171303471877543245e-01,2.170700024563943509e-01,2.011953629457013670e-01,1.641039254708601125e-01,3.946680458100735311e-01,1.580688412568609647e-01,3.883261899299254027e-01,2.860609712214590705e-01,2.553878044347192566e-01,9.684867640547689671e-02,3.856780420645656848e-01,2.909073849957888314e-01,3.296440470782014409e-01,4.950836767274119921e-01,6.718088294686913597e-01,2.068221403211082388e-01,3.580489466901512485e-02,2.090536698628830403e-01,3.580832886859107722e-01,1.235819371024785424e-01,1.821508850349198294e-01,4.276832524074958841e-01,3.520712731141121266e-01,4.304317273059884430e-01,3.491218325363443786e-01,2.909405810476797805e-01,2.194440458331886890e-01,1.892277778069702820e-01,2.453712081751479313e-01,2.507185967185197040e-01,2.948155730301802446e-01,7.117524561873482813e-01,1.510203914677536174e-01,1.444309002097740047e-01,1.088495232056267553e-01,4.475905490509380358e-01,1.426732281608156794e-01,1.830240518909722336e-01,1.757313067954934804e-01,3.055674025117898207e-01,2.338217889849221742e-01,4.641931014778730158e-01,2.741527968087974498e-01,2.816847552861170834e-01,1.626462635608274809e-01,3.186678646035507323e-01,2.402301662057036713e-01,3.677370348255850629e-01,4.754531412618154818e-01,6.488134252835846549e-01,2.496115182181799230e-01,2.020774177965341256e-01,1.200120068478693763e-01,3.512006365731609736e-01,1.884120802800291761e-01,1.189629381816477149e-01,4.509241435480670912e-01,2.761588921002244290e-01,5.169424248512021203e-01,4.096601387466989874e-01,3.017312014171213419e-01,2.985254161814698826e-01,2.057311695717282396e-01,3.898673356694021264e-01,3.918403491730637622e-01,1.994302219756999006e-01,7.477577469237809416e-01,1.503764636654068010e-01,5.017840504532564833e-02,2.519164471263868887e-01,2.127422464293263482e-01,1.088495232056267553e-01,4.475905490509380358e-01,1.426732281608156794e-01,1.830240518909722336e-01,1.757313067954934804e-01,3.055674025117898207e-01,2.338217889849221742e-01,4.641931014778730158e-01,2.741527968087974498e-01,2.816847552861170834e-01,1.626462635608274809e-01,3.186678646035507323e-01,2.402301662057036713e-01,3.677370348255850629e-01,4.754531412618154818e-01,6.488134252835846549e-01,2.496115182181799230e-01,2.020774177965341256e-01,1.200120068478693763e-01,3.512006365731609736e-01,1.884120802800291761e-01,1.189629381816477149e-01,4.509241435480670912e-01,2.761588921002244290e-01,5.169424248512021203e-01,4.096601387466989874e-01,3.017312014171213419e-01,2.985254161814698826e-01,2.057311695717282396e-01,3.898673356694021264e-01,3.918403491730637622e-01,1.994302219756999006e-01,7.477577469237809416e-01,1.503764636654068010e-01,5.017840504532564833e-02,5.454697655119733479e-02,4.876439539596056916e-01,1.848594207668348144e-01,1.236281743192764043e-01,2.134702349657157106e-01,2.110699331028481618e-01,3.739808888339306026e-01,5.089874728792722625e-01,1.887012944863893649e-01,2.947051598230850944e-01,2.440017979826329397e-01,2.271497218452641353e-01,3.540012566395686067e-01,3.766516468988420629e-01,3.971029746762918533e-01,4.971897090623861315e-01,2.829236229436322692e-01,3.456333341323172825e-01,1.074564611325118657e-01,2.861747445791525402e-01,2.651285035264834833e-01,9.245687403781797931e-02,4.331086460581397013e-01,1.583631348038581632e-01,5.501003161030516564e-01,4.229828318971474710e-01,2.800045365931735364e-01,4.003082464139182672e-01,2.398904704266414389e-01,4.798682426219820218e-01,5.116707287726064424e-01,1.334198601372306170e-01,6.708083505163862093e-01,1.979207438845294320e-01,1.099705050742746243e-01,3.873988564471061435e-01,1.424171155557669988e-01,5.454697655119733479e-02,4.876439539596056916e-01,1.848594207668348144e-01,1.236281743192764043e-01,2.134702349657157106e-01,2.110699331028481618e-01,3.739808888339306026e-01,5.089874728792722625e-01,1.887012944863893649e-01,2.947051598230850944e-01,2.440017979826329397e-01,2.271497218452641353e-01,3.540012566395686067e-01,3.766516468988420629e-01,3.971029746762918533e-01,4.971897090623861315e-01,2.829236229436322692e-01,3.456333341323172825e-01,1.074564611325118657e-01,2.861747445791525402e-01,2.651285035264834833e-01,9.245687403781797931e-02,4.331086460581397013e-01,1.583631348038581632e-01,5.501003161030516564e-01,4.229828318971474710e-01,2.800045365931735364e-01,4.003082464139182672e-01,2.398904704266414389e-01,4.798682426219820218e-01,5.116707287726064424e-01,1.334198601372306170e-01,6.708083505163862093e-01,1.979207438845294320e-01,1.099705050742746243e-01,2.187877063481733497e-01,5.233555654710426719e-01,2.949040049943731367e-01,8.903741175050960965e-02,1.825756655178163990e-01,1.598930802506633719e-01,5.144257722944803879e-01,5.120095230827207411e-01,7.030272251027813724e-02,2.874884597950396192e-01,3.297183444172446798e-01,1.063618621164389988e-01,4.738453388402035227e-01,3.562851111053337294e-01,3.000440074908794497e-01,2.594418345042815432e-01,2.761718464280839003e-01,4.095589380191504425e-01,2.846857697286968025e-01,1.813545013731476807e-01,3.405080249446211793e-01,1.842996239247031154e-01,3.619346438227438179e-01,2.422856756950781953e-01,5.104624951904471741e-01,3.858451587257599735e-01,2.508518782930381774e-01,4.425373416366382706e-01,2.782733624778881421e-01,4.661873915874500396e-01,5.777689282516286218e-01,9.429548476548176017e-02,5.125241997176667175e-01,2.487705426340127424e-01,2.400104632855646070e-01,5.118762728865943190e-01,1.209407383637625261e-01,2.187877063481733497e-01,5.233555654710426719e-01,2.949040049943731367e-01,8.903741175050960965e-02,1.825756655178163990e-01,1.598930802506633719e-01,5.144257722944803879e-01,5.120095230827207411e-01,7.030272251027813724e-02,2.874884597950396192e-01,3.297183444172446798e-01,1.063618621164389988e-01,4.738453388402035227e-01,3.562851111053337294e-01,3.000440074908794497e-01,2.594418345042815432e-01,2.761718464280839003e-01,4.095589380191504425e-01,2.846857697286968025e-01,1.813545013731476807e-01,3.405080249446211793e-01,1.842996239247031154e-01,3.619346438227438179e-01,2.422856756950781953e-01,5.104624951904471741e-01,3.858451587257599735e-01,2.508518782930381774e-01,4.425373416366382706e-01,2.782733624778881421e-01,4.661873915874500396e-01,5.777689282516286218e-01,9.429548476548176017e-02,5.125241997176667175e-01,2.487705426340127424e-01,2.400104632855646070e-01,3.774198032868169017e-01,5.254397452107116839e-01,4.045119634040827972e-01,1.816317461900805175e-01,7.467929290350107385e-02,2.229236293761235332e-01,6.254489855635793072e-01,4.798478821949639928e-01,2.219960551875936328e-01,2.578057637453867734e-01,4.022072000783240564e-01,4.873665175088192497e-02,5.204977985183422140e-01,3.186995996501675310e-01,2.492228901167966026e-01,5.814916572665867339e-02,2.352835039246540527e-01,3.888151554252688991e-01,4.520925738768656332e-01,6.743867102662219615e-02,3.929700369277955851e-01,2.823218753486360089e-01,2.479127915592451714e-01,4.471612697230941125e-01,4.005894102605881968e-01,3.061665922475860779e-01,2.441077743146082557e-01,4.044435002638983034e-01,3.269543353340351732e-01,3.448798488943846108e-01,5.792042144261191350e-01,7.518579840348137144e-02,3.303127840567237627e-01,2.769021588684468793e-01,3.407347671091919827e-01,5.991237216319130754e-01,1.859739702949909090e-01,3.774198032868169017e-01,5.254397452107116839e-01,4.045119634040827972e-01,1.816317461900805175e-01,7.467929290350107385e-02,2.229236293761235332e-01,6.254489855635793072e-01,4.798478821949639928e-01,2.219960551875936328e-01,2.578057637453867734e-01,4.022072000783240564e-01,4.873665175088192497e-02,5.204977985183422140e-01,3.186995996501675310e-01,2.492228901167966026e-01,5.814916572665867339e-02,2.352835039246540527e-01,3.888151554252688991e-01,4.520925738768656332e-01,6.743867102662219615e-02,3.929700369277955851e-01,2.823218753486360089e-01,2.479127915592451714e-01,4.471612697230941125e-01,4.005894102605881968e-01,3.061665922475860779e-01,2.441077743146082557e-01,4.044435002638983034e-01,3.269543353340351732e-01,3.448798488943846108e-01,5.792042144261191350e-01,7.518579840348137144e-02,3.303127840567237627e-01,2.769021588684468793e-01,3.407347671091919827e-01,4.895796957188780496e-01,4.685797774817893058e-01,4.929970916447404816e-01,3.058216162983307673e-01,1.461618304851555750e-01,3.449113905232235044e-01,6.897473995616215658e-01,4.374071739246019885e-01,4.543408366546839994e-01,2.159775733204122306e-01,4.411087098622260005e-01,2.234104663001274527e-01,4.735841445855176746e-01,2.841521819400341653e-01,2.718281570940225822e-01,2.673697845447539079e-01,2.111745748864382599e-01,3.111963853020294768e-01,5.477832423261514982e-01,6.743190624245298803e-02,3.975311001305727454e-01,3.380013672383521683e-01,1.405817465109659437e-01,6.133082554828522825e-01,2.475047362618924829e-01,2.045113769974906404e-01,2.626561985732562832e-01,2.987753140905757276e-01,3.918559827156231079e-01,1.705351004502782264e-01,5.243452580746558178e-01,1.188949336536800211e-01,2.154699597864384308e-01,2.796422140278959634e-01,3.874688700531443430e-01,6.294790218885213395e-01,2.591590655269998544e-01,4.895796957188780496e-01,4.685797774817893058e-01,4.929970916447404816e-01,3.058216162983307673e-01,1.461618304851555750e-01,3.449113905232235044e-01,6.897473995616215658e-01,4.374071739246019885e-01,4.543408366546839994e-01,2.159775733204122306e-01,4.411087098622260005e-01,2.234104663001274527e-01,4.735841445855176746e-01,2.841521819400341653e-01,2.718281570940225822e-01,2.673697845447539079e-01,2.111745748864382599e-01,3.111963853020294768e-01,5.477832423261514982e-01,6.743190624245298803e-02,3.975311001305727454e-01,3.380013672383521683e-01,1.405817465109659437e-01,6.133082554828522825e-01,2.475047362618924829e-01,2.045113769974906404e-01,2.626561985732562832e-01,2.987753140905757276e-01,3.918559827156231079e-01,1.705351004502782264e-01,5.243452580746558178e-01,1.188949336536800211e-01,2.154699597864384308e-01,2.796422140278959634e-01,3.874688700531443430e-01,5.346731501271352327e-01,3.480572711979872391e-01,5.515031452172172166e-01,4.105682495722957071e-01,3.515252584313297013e-01,4.647252698528401282e-01,6.983945080034956732e-01,4.163926344674179214e-01,6.610448352724617171e-01,1.948012021756730938e-01,4.289939229887131944e-01,4.045924099349559877e-01,3.445449293486020914e-01,2.658474260827952684e-01,3.127775996344649978e-01,4.389422585041558023e-01,2.579933743093108522e-01,2.379275743459193238e-01,5.413602266528578788e-01,1.471027194176220965e-01,3.336133872161402003e-01,3.409283174603616184e-01,1.526804656582821385e-01,6.923101391201403887e-01,1.161630159945271079e-01,1.164813228586670246e-01,2.791477627387103921e-01,1.577957085903257117e-01,4.585811755903031472e-01,1.950300009593995687e-01,4.349379012586250814e-01,2.069210362769327294e-01,2.243673933425496259e-01,2.722419472783257355e-01,3.794859412541151111e-01,5.962505552339263382e-01,2.935632295699645566e-01,5.346731501271352327e-01,3.480572711979872391e-01,5.515031452172172166e-01,4.105682495722957071e-01,3.515252584313297013e-01,4.647252698528401282e-01,6.983945080034956732e-01,4.163926344674179214e-01,6.610448352724617171e-01,1.948012021756730938e-01,4.289939229887131944e-01,4.045924099349559877e-01,3.445449293486020914e-01,2.658474260827952684e-01,3.127775996344649978e-01,4.389422585041558023e-01,2.579933743093108522e-01,2.379275743459193238e-01,5.413602266528578788e-01,1.471027194176220965e-01,3.336133872161402003e-01,3.409283174603616184e-01,1.526804656582821385e-01,6.923101391201403887e-01,1.161630159945271079e-01,1.164813228586670246e-01,2.791477627387103921e-01,1.577957085903257117e-01,4.585811755903031472e-01,1.950300009593995687e-01,4.349379012586250814e-01,2.069210362769327294e-01,2.243673933425496259e-01,2.722419472783257355e-01,3.794859412541151111e-01,5.178847547792551076e-01,1.926122069977448115e-01,5.741157344532367146e-01,4.753430891710918038e-01,5.283744052698411409e-01,5.523395552515428797e-01,6.508046584604000317e-01,4.269492395902388937e-01,7.936690782528352806e-01,2.259127674196003688e-01,3.580048316135888142e-01,5.629175263619162761e-01,1.781068861744444509e-01,2.545539723884566730e-01,3.325259461752827495e-01,5.260096049048200717e-01,3.385823087737176440e-01,2.304468077548442739e-01,4.311705007247294552e-01,2.059349869895506224e-01,1.937833475592209975e-01,3.077608521056982571e-01,2.271830884495376068e-01,6.745714787582917094e-01,1.432721295231221548e-01,9.204213190308091486e-02,2.689908826692553045e-01,3.461571529953185594e-02,4.979726241289370026e-01,3.705656305178599008e-01,3.353057668180615125e-01,2.926071023593642684e-01,2.404704802559448074e-01,2.754777592788978935e-01,3.481889615067977894e-01,5.080847008348859939e-01,2.698455212069919007e-01,5.178847547792551076e-01,1.926122069977448115e-01,5.741157344532367146e-01,4.753430891710918038e-01,5.283744052698411409e-01,5.523395552515428797e-01,6.508046584604000317e-01,4.269492395902388937e-01,7.936690782528352806e-01,2.259127674196003688e-01,3.580048316135888142e-01,5.629175263619162761e-01,1.781068861744444509e-01,2.545539723884566730e-01,3.325259461752827495e-01,5.260096049048200717e-01,3.385823087737176440e-01,2.304468077548442739e-01,4.311705007247294552e-01,2.059349869895506224e-01,1.937833475592209975e-01,3.077608521056982571e-01,2.271830884495376068e-01,6.745714787582917094e-01,1.432721295231221548e-01,9.204213190308091486e-02,2.689908826692553045e-01,3.461571529953185594e-02,4.979726241289370026e-01,3.705656305178599008e-01,3.353057668180615125e-01,2.926071023593642684e-01,2.404704802559448074e-01,2.754777592788978935e-01,3.481889615067977894e-01,4.782605534123144930e-01,1.299303929108659716e-01,5.565280362321309848e-01,4.946102942381343515e-01,6.263603021996954068e-01,5.895198126086179657e-01,5.550799933158435673e-01,4.467868817013029847e-01,8.206162999228876487e-01,2.842041674805246276e-01,2.375547149568908722e-01,6.669932902875547187e-01,1.364338219585744805e-01,2.294014037179544496e-01,3.309104905815760111e-01,5.405443263469559279e-01,3.982463045667978263e-01,2.579149009783348601e-01,2.438044275758009249e-01,2.533538006184005154e-01,3.583406304108713997e-02,2.779422529488395632e-01,2.683908914132309143e-01,5.797828131656724837e-01,2.171272118540916451e-01,1.079661857068487663e-01,2.251143291681762804e-01,1.209327586023414280e-01,4.829716186449554138e-01,4.730077070498305281e-01,2.400470594566899984e-01,3.461407777888729775e-01,1.848483988796274513e-01,2.908780850310376809e-01,3.472788414115029476e-01,3.859522934231488511e-01,1.865779975730204043e-01,4.782605534123144930e-01,1.299303929108659716e-01,5.565280362321309848e-01,4.946102942381343515e-01,6.263603021996954068e-01,5.895198126086179657e-01,5.550799933158435673e-01,4.467868817013029847e-01,8.206162999228876487e-01,2.842041674805246276e-01,2.375547149568908722e-01,6.669932902875547187e-01,1.364338219585744805e-01,2.294014037179544496e-01,3.309104905815760111e-01,5.405443263469559279e-01,3.982463045667978263e-01,2.579149009783348601e-01,2.438044275758009249e-01,2.533538006184005154e-01,3.583406304108713997e-02,2.779422529488395632e-01,2.683908914132309143e-01,5.797828131656724837e-01,2.171272118540916451e-01,1.079661857068487663e-01,2.251143291681762804e-01,1.209327586023414280e-01,4.829716186449554138e-01,4.730077070498305281e-01,2.400470594566899984e-01,3.461407777888729775e-01,1.848483988796274513e-01,2.908780850310376809e-01,3.472788414115029476e-01,4.783884389646018143e-01,2.361874725927526897e-01,4.979750943601627400e-01,4.783778483796613523e-01,6.204337162939544958e-01,5.684867171509503381e-01,4.280547993868468737e-01,4.481258129669118961e-01,7.354254251508112183e-01,3.247331493248964418e-01,1.243395605544100613e-01,6.915216358996170154e-01,2.627302690377756322e-01,1.793085909496332508e-01,3.197449756684807576e-01,5.180544237355642068e-01,4.176431373927071422e-01,2.622317592635339811e-01,4.047883196445532100e-02,3.038987246853218083e-01,2.608166254977070664e-01,2.867608528732458750e-01,2.822831164944505922e-01,4.460404916584520540e-01,2.524184595643516049e-01,1.178749166572660712e-01,1.601367410187785612e-01,2.292594598657388127e-01,4.006420133613548540e-01,4.510941695525509387e-01,1.507445989614489557e-01,3.516248902163516821e-01,5.857155914784251127e-02,2.958962667992705575e-01,3.913057679145369172e-01,2.549291052863380536e-01,7.554041540392718301e-02,4.783884389646018143e-01,2.361874725927526897e-01,4.979750943601627400e-01,4.783778483796613523e-01,6.204337162939544958e-01,5.684867171509503381e-01,4.280547993868468737e-01,4.481258129669118961e-01,7.354254251508112183e-01,3.247331493248964418e-01,1.243395605544100613e-01,6.915216358996170154e-01,2.627302690377756322e-01,1.793085909496332508e-01,3.197449756684807576e-01,5.180544237355642068e-01,4.176431373927071422e-01,2.622317592635339811e-01,4.047883196445532100e-02,3.038987246853218083e-01,2.608166254977070664e-01,2.867608528732458750e-01,2.822831164944505922e-01,4.460404916584520540e-01,2.524184595643516049e-01,1.178749166572660712e-01,1.601367410187785612e-01,2.292594598657388127e-01,4.006420133613548540e-01,4.510941695525509387e-01,1.507445989614489557e-01,3.516248902163516821e-01,5.857155914784251127e-02,2.958962667992705575e-01,3.913057679145369172e-01,0.000000000000000000e+00,0.000000000000000000e+00,0.000000000000000000e+00,0.000000000000000000e+00,0.000000000000000000e+00,0.000000000000000000e+00,0.000000000000000000e+00,0.000000000000000000e+00,0.000000000000000000e+00,0.000000000000000000e+00,0.000000000000000000e+00,0.000000000000000000e+00,0.000000000000000000e+00,0.000000000000000000e+00,0.000000000000000000e+00,0.000000000000000000e+00,0.000000000000000000e+00,0.000000000000000000e+00,0.000000000000000000e+00,0.000000000000000000e+00,0.000000000000000000e+00,0.000000000000000000e+00,0.000000000000000000e+00,0.000000000000000000e+00,0.000000000000000000e+00,0.000000000000000000e+00,0.000000000000000000e+00,0.000000000000000000e+00,0.000000000000000000e+00,0.000000000000000000e+00,0.000000000000000000e+00,0.000000000000000000e+00,0.000000000000000000e+00,0.000000000000000000e+00,0.000000000000000000e+00,0.000000000000000000e+00,0.000000000000000000e+00,0.000000000000000000e+00,0.000000000000000000e+00,0.000000000000000000e+00,0.000000000000000000e+00,0.000000000000000000e+00,0.000000000000000000e+00,0.000000000000000000e+00,0.000000000000000000e+00,0.000000000000000000e+00,0.000000000000000000e+00,0.000000000000000000e+00,0.000000000000000000e+00,0.000000000000000000e+00,0.000000000000000000e+00,0.000000000000000000e+00,0.000000000000000000e+00,0.000000000000000000e+00,0.000000000000000000e+00,0.000000000000000000e+00,0.000000000000000000e+00,0.000000000000000000e+00,0.000000000000000000e+00,0.000000000000000000e+00,0.000000000000000000e+00,0.000000000000000000e+00,0.000000000000000000e+00,0.000000000000000000e+00,0.000000000000000000e+00,0.000000000000000000e+00,0.000000000000000000e+00,0.000000000000000000e+00,0.000000000000000000e+00,0.000000000000000000e+00,0.000000000000000000e+00,0.000000000000000000e+00,0.000000000000000000e+00,0.000000000000000000e+00
9.233236783130023551e-02,1.871162197705711905e-01,6.386219104797651730e-04,4.696137119773137192e-01,6.175885888475122210e-01,1.939968558383209085e-01,3.110088704036456098e-01,9.486625476642962518e-02,2.465904602723480166e-01,3.844503901088185960e-01,1.098017671889402608e-01,1.467800358763976243e-01,2.222816262605376014e-02,1.824398593293161397e-01,3.478223334367856467e-01,8.812982364620758347e-02,2.042972092331558354e-01,1.998268558597974739e-02,1.071854774266521870e-01,4.086562205866806630e-01,2.472290821828277696e-01,2.658521211206893442e-01,1.670099299438534135e-01,4.988049134982758814e-01,3.230190824620231271e-02,2.551191528832713051e-01,2.439741705100599567e-01,3.868812735099996097e-02,3.194139587738308861e-01,3.280868563322819065e-01,2.691276335002468212e-01,2.123520855879167391e-01,4.313788001756865137e-02,3.499854076497009303e-01,7.877298262233954906e-01,3.619132168809198191e-01,2.926948420676291351e-01,1.346462195772820947e-01,5.918377053604249038e-01,2.025667498628235530e-01,2.090765732083592343e-01,4.416791535705213989e-02,9.233236783130023551e-02,1.871162197705711905e-01,6.386219104797651730e-04,4.696137119773137192e-01,6.175885888475122210e-01,1.939968558383209085e-01,3.110088704036456098e-01,9.486625476642962518e-02,2.465904602723480166e-01,3.844503901088185960e-01,1.098017671889402608e-01,1.467800358763976243e-01,2.222816262605376014e-02,1.824398593293161397e-01,3.478223334367856467e-01,8.812982364620758347e-02,2.042972092331558354e-01,1.998268558597974739e-02,1.071854774266521870e-01,4.086562205866806630e-01,2.472290821828277696e-01,2.658521211206893442e-01,1.670099299438534135e-01,4.988049134982758814e-01,3.230190824620231271e-02,2.551191528832713051e-01,2.439741705100599567e-01,3.868812735099996097e-02,3.194139587738308861e-01,3.280868563322819065e-01,1.511679863770479526e-01,1.977740055358368221e-01,2.045384250338247098e-02,4.602469540549664062e-01,5.712171378224407681e-01,2.183564359313724668e-01,3.604870161459892697e-01,3.217379583695652578e-01,2.302763868901123723e-01,3.325466778441766857e-01,1.631073343100709339e-01,2.092901559483824614e-01,3.948750189939029265e-02,1.945047432077384175e-01,3.584422229452036701e-01,2.050809018495103886e-01,2.382677398443504291e-01,1.325462209951618620e-01,1.597818766439978999e-01,3.677066457590011384e-01,2.337741779855726787e-01,2.263880051276089822e-01,1.483591968745171796e-01,4.708835977424036257e-01,3.073493059632916302e-01,2.385850812624684680e-01,2.373261657385576373e-01,2.388710586020149906e-02,3.167529485900543729e-01,3.141727592855196871e-01,2.867117663724056964e-01,2.817949227545961666e-01,1.317157814103355751e-01,3.909779949375200014e-01,7.128008818582577399e-01,3.520978962268653811e-01,2.935990388671237405e-01,1.867739249284565139e-01,5.974059766008823491e-01,2.664661510268404032e-01,3.369285763467272377e-01,4.249887034985304346e-02,1.511679863770479526e-01,1.977740055358368221e-01,2.045384250338247098e-02,4.602469540549664062e-01,5.712171378224407681e-01,2.183564359313724668e-01,3.604870161459892697e-01,3.217379583695652578e-01,2.302763868901123723e-01,3.325466778441766857e-01,1.631073343100709339e-01,2.092901559483824614e-01,3.948750189939029265e-02,1.945047432077384175e-01,3.584422229452036701e-01,2.050809018495103886e-01,2.382677398443504291e-01,1.325462209951618620e-01,1.597818766439978999e-01,3.677066457590011384e-01,2.337741779855726787e-01,2.263880051276089822e-01,1.483591968745171796e-01,4.708835977424036257e-01,3.073493059632916302e-01,2.385850812624684680e-01,2.373261657385576373e-01,2.388710586020149906e-02,3.167529485900543729e-01,3.141727592855196871e-01,2.363056314692352777e-01,2.241585859507399803e-01,5.034952612461607302e-02,4.323020599045938606e-01,4.456322801502813902e-01,2.731699392422353156e-01,4.472422416285656288e-01,5.544553158099045920e-01,2.015577042772890570e-01,1.917511981493326412e-01,2.209953232443068183e-01,3.039922016680524641e-01,7.457245370395086670e-02,2.059357714954579699e-01,3.888002857987742367e-01,3.245588045744870476e-01,3.247480896490494984e-01,2.521565242290181863e-01,2.395178310111890085e-01,2.712288573193148422e-01,2.047633647939369195e-01,1.667585328928238297e-01,1.495564137778150893e-01,3.953707748597868332e-01,5.577595042517407009e-01,1.956344729106645197e-01,2.088750475584850164e-01,4.113368543163477969e-02,3.038751602365332705e-01,2.757461324904527666e-01,3.247887917219409171e-01,4.046095405633785558e-01,2.160008852032127002e-01,4.760390844570271396e-01,5.229990823653015708e-01,3.268503891295505559e-01,2.933472831030092820e-01,2.877569880762078647e-01,5.984269253951872702e-01,3.697483633104666767e-01,5.131624332389923548e-01,5.392284496284512757e-02,2.363056314692352777e-01,2.241585859507399803e-01,5.034952612461607302e-02,4.323020599045938606e-01,4.456322801502813902e-01,2.731699392422353156e-01,4.472422416285656288e-01,5.544553158099045920e-01,2.015577042772890570e-01,1.917511981493326412e-01,2.209953232443068183e-01,3.039922016680524641e-01,7.457245370395086670e-02,2.059357714954579699e-01,3.888002857987742367e-01,3.245588045744870476e-01,3.247480896490494984e-01,2.521565242290181863e-01,2.395178310111890085e-01,2.712288573193148422e-01,2.047633647939369195e-01,1.667585328928238297e-01,1.495564137778150893e-01,3.953707748597868332e-01,5.577595042517407009e-01,1.956344729106645197e-01,2.088750475584850164e-01,4.113368543163477969e-02,3.038751602365332705e-01,2.757461324904527666e-01,2.860609712214590705e-01,2.553878044347192566e-01,9.684867640547689671e-02,3.856780420645656848e-01,2.909073849957888314e-01,3.296440470782014409e-01,4.950836767274119921e-01,6.718088294686913597e-01,2.068221403211082388e-01,3.580489466901512485e-02,2.090536698628830403e-01,3.580832886859107722e-01,1.235819371024785424e-01,1.821508850349198294e-01,4.276832524074958841e-01,3.520712731141121266e-01,4.304317273059884430e-01,3.491218325363443786e-01,2.909405810476797805e-01,2.194440458331886890e-01,1.892277778069702820e-01,2.453712081751479313e-01,2.507185967185197040e-01,2.948155730301802446e-01,7.117524561873482813e-01,1.510203914677536174e-01,1.444309002097740047e-01,1.303563123185897399e-01,2.708648594812442245e-01,2.224111337154540124e-01,3.614964742550839660e-01,5.025632554004187957e-01,2.379730386457217517e-01,5.499135984378754616e-01,3.588039222943772422e-01,2.956252408908799922e-01,2.843976676681315707e-01,3.926351578723314972e-01,5.653118881441767662e-01,4.302644159878469265e-01,6.068450516610937040e-01,7.979153124246672613e-02,2.860609712214590705e-01,2.553878044347192566e-01,9.684867640547689671e-02,3.856780420645656848e-01,2.909073849957888314e-01,3.296440470782014409e-01,4.950836767274119921e-01,6.718088294686913597e-01,2.068221403211082388e-01,3.580489466901512485e-02,2.090536698628830403e-01,3.580832886859107722e-01,1.235819371024785424e-01,1.821508850349198294e-01,4.276832524074958841e-01,3.520712731141121266e-01,4.304317273059884430e-01,3.491218325363443786e-01,2.909405810476797805e-01,2.194440458331886890e-01,1.892277778069702820e-01,2.453712081751479313e-01,2.507185967185197040e-01,2.948155730301802446e-01,7.117524561873482813e-01,1.510203914677536174e-01,1.444309002097740047e-01,1.303563123185897399e-01,2.708648594812442245e-01,2.224111337154540124e-01,2.741527968087974498e-01,2.816847552861170834e-01,1.626462635608274809e-01,3.186678646035507323e-01,2.402301662057036713e-01,3.677370348255850629e-01,4.754531412618154818e-01,6.488134252835846549e-01,2.496115182181799230e-01,2.020774177965341256e-01,1.200120068478693763e-01,3.512006365731609736e-01,1.884120802800291761e-01,1.189629381816477149e-01,4.509241435480670912e-01,2.761588921002244290e-01,5.169424248512021203e-01,4.096601387466989874e-01,3.017312014171213419e-01,2.985254161814698826e-01,2.057311695717282396e-01,3.898673356694021264e-01,3.918403491730637622e-01,1.994302219756999006e-01,7.477577469237809416e-01,1.503764636654068010e-01,5.017840504532564833e-02,2.519164471263868887e-01,2.127422464293263482e-01,1.687191943591101473e-01,3.898088817014120910e-01,5.467484222769980473e-01,1.861150104988330556e-01,5.832958200404548821e-01,4.448772665820522332e-01,2.647561923598783507e-01,2.581569094266916164e-01,4.841219430438023497e-01,4.818671174824385450e-01,4.202925143818440068e-01,5.896963881932464346e-01,9.258458744618454361e-02,2.741527968087974498e-01,2.816847552861170834e-01,1.626462635608274809e-01,3.186678646035507323e-01,2.402301662057036713e-01,3.677370348255850629e-01,4.754531412618154818e-01,6.488134252835846549e-01,2.496115182181799230e-01,2.020774177965341256e-01,1.200120068478693763e-01,3.512006365731609736e-01,1.884120802800291761e-01,1.189629381816477149e-01,4.509241435480670912e-01,2.761588921002244290e-01,5.169424248512021203e-01,4.096601387466989874e-01,3.017312014171213419e-01,2.985254161814698826e-01,2.057311695717282396e-01,3.898673356694021264e-01,3.918403491730637622e-01,1.994302219756999006e-01,7.477577469237809416e-01,1.503764636654068010e-01,5.017840504532564833e-02,2.519164471263868887e-01,2.127422464293263482e-01,1.687191943591101473e-01,1.887012944863893649e-01,2.947051598230850944e-01,2.440017979826329397e-01,2.271497218452641353e-01,3.540012566395686067e-01,3.766516468988420629e-01,3.971029746762918533e-01,4.971897090623861315e-01,2.829236229436322692e-01,3.456333341323172825e-01,1.074564611325118657e-01,2.861747445791525402e-01,2.651285035264834833e-01,9.245687403781797931e-02,4.331086460581397013e-01,1.583631348038581632e-01,5.501003161030516564e-01,4.229828318971474710e-01,2.800045365931735364e-01,4.003082464139182672e-01,2.398904704266414389e-01,4.798682426219820218e-01,5.116707287726064424e-01,1.334198601372306170e-01,6.708083505163862093e-01,1.979207438845294320e-01,1.099705050742746243e-01,3.873988564471061435e-01,1.424171155557669988e-01,1.295736624594792941e-01,4.136997404246644527e-01,5.284300752316110072e-01,7.985240763881440440e-02,5.699489826239417800e-01,6.376378346215088033e-01,2.302337395447834889e-01,2.099162241181046773e-01,5.494880836797547685e-01,3.572504986810333127e-01,3.394773586245293240e-01,4.770015032253731579e-01,7.184600811396615883e-02,1.887012944863893649e-01,2.947051598230850944e-01,2.440017979826329397e-01,2.271497218452641353e-01,3.540012566395686067e-01,3.766516468988420629e-01,3.971029746762918533e-01,4.971897090623861315e-01,2.829236229436322692e-01,3.456333341323172825e-01,1.074564611325118657e-01,2.861747445791525402e-01,2.651285035264834833e-01,9.245687403781797931e-02,4.331086460581397013e-01,1.583631348038581632e-01,5.501003161030516564e-01,4.229828318971474710e-01,2.800045365931735364e-01,4.003082464139182672e-01,2.398904704266414389e-01,4.798682426219820218e-01,5.116707287726064424e-01,1.334198601372306170e-01,6.708083505163862093e-01,1.979207438845294320e-01,1.099705050742746243e-01,3.873988564471061435e-01,1.424171155557669988e-01,1.295736624594792941e-01,7.030272251027813724e-02,2.874884597950396192e-01,3.297183444172446798e-01,1.063618621164389988e-01,4.738453388402035227e-01,3.562851111053337294e-01,3.000440074908794497e-01,2.594418345042815432e-01,2.761718464280839003e-01,4.095589380191504425e-01,2.846857697286968025e-01,1.813545013731476807e-01,3.405080249446211793e-01,1.842996239247031154e-01,3.619346438227438179e-01,2.422856756950781953e-01,5.104624951904471741e-01,3.858451587257599735e-01,2.508518782930381774e-01,4.425373416366382706e-01,2.782733624778881421e-01,4.661873915874500396e-01,5.777689282516286218e-01,9.429548476548176017e-02,5.125241997176667175e-01,2.487705426340127424e-01,2.400104632855646070e-01,5.118762728865943190e-01,1.209407383637625261e-01,1.081125502346272221e-01,4.337730722295505825e-01,4.529508993991970822e-01,1.278345246461020379e-01,5.221660224484774293e-01,7.462035176472258113e-01,1.807961318614190460e-01,1.468822800714038590e-01,5.771518502385194482e-01,2.271968823943565641e-01,2.084672758813255200e-01,3.202513237600780882e-01,1.281860337569097966e-02,7.030272251027813724e-02,2.874884597950396192e-01,3.297183444172446798e-01,1.063618621164389988e-01,4.738453388402035227e-01,3.562851111053337294e-01,3.000440074908794497e-01,2.594418345042815432e-01,2.761718464280839003e-01,4.095589380191504425e-01,2.846857697286968025e-01,1.813545013731476807e-01,3.405080249446211793e-01,1.842996239247031154e-01,3.619346438227438179e-01,2.422856756950781953e-01,5.104624951904471741e-01,3.858451587257599735e-01,2.508518782930381774e-01,4.425373416366382706e-01,2.782733624778881421e-01,4.661873915874500396e-01,5.777689282516286218e-01,9.429548476548176017e-02,5.125241997176667175e-01,2.487705426340127424e-01,2.400104632855646070e-01,5.118762728865943190e-01,1.209407383637625261e-01,1.081125502346272221e-01,2.219960551875936328e-01,2.578057637453867734e-01,4.022072000783240564e-01,4.873665175088192497e-02,5.204977985183422140e-01,3.186995996501675310e-01,2.492228901167966026e-01,5.814916572665867339e-02,2.352835039246540527e-01,3.888151554252688991e-01,4.520925738768656332e-01,6.743867102662219615e-02,3.929700369277955851e-01,2.823218753486360089e-01,2.479127915592451714e-01,4.471612697230941125e-01,4.005894102605881968e-01,3.061665922475860779e-01,2.441077743146082557e-01,4.044435002638983034e-01,3.269543353340351732e-01,3.448798488943846108e-01,5.792042144261191350e-01,7.518579840348137144e-02,3.303127840567237627e-01,2.769021588684468793e-01,3.407347671091919827e-01,5.991237216319130754e-01,1.859739702949909090e-01,9.006365838872905372e-02,4.395811566514523094e-01,3.422611993011520637e-01,2.977123410701863482e-01,4.679658621886246261e-01,7.144793948596374067e-01,1.084535628778371535e-01,1.123092244929123074e-01,5.587651504139166114e-01,1.556589154459015190e-01,9.631226685989313641e-02,2.167462537195706529e-01,8.110283716162954015e-02,2.219960551875936328e-01,2.578057637453867734e-01,4.022072000783240564e-01,4.873665175088192497e-02,5.204977985183422140e-01,3.186995996501675310e-01,2.492228901167966026e-01,5.814916572665867339e-02,2.352835039246540527e-01,3.888151554252688991e-01,4.520925738768656332e-01,6.743867102662219615e-02,3.929700369277955851e-01,2.823218753486360089e-01,2.479127915592451714e-01,4.471612697230941125e-01,4.005894102605881968e-01,3.061665922475860779e-01,2.441077743146082557e-01,4.044435002638983034e-01,3.269543353340351732e-01,3.448798488943846108e-01,5.792042144261191350e-01,7.518579840348137144e-02,3.303127840567237627e-01,2.769021588684468793e-01,3.407347671091919827e-01,5.991237216319130754e-01,1.859739702949909090e-01,9.006365838872905372e-02,4.543408366546839994e-01,2.159775733204122306e-01,4.411087098622260005e-01,2.234104663001274527e-01,4.735841445855176746e-01,2.841521819400341653e-01,2.718281570940225822e-01,2.673697845447539079e-01,2.111745748864382599e-01,3.111963853020294768e-01,5.477832423261514982e-01,6.743190624245298803e-02,3.975311001305727454e-01,3.380013672383521683e-01,1.405817465109659437e-01,6.133082554828522825e-01,2.475047362618924829e-01,2.045113769974906404e-01,2.626561985732562832e-01,2.987753140905757276e-01,3.918559827156231079e-01,1.705351004502782264e-01,5.243452580746558178e-01,1.188949336536800211e-01,2.154699597864384308e-01,2.796422140278959634e-01,3.874688700531443430e-01,6.294790218885213395e-01,2.591590655269998544e-01,6.344256552078492151e-02,4.168254195338976786e-01,2.529805504303846431e-01,4.518647587630473250e-01,4.416814309151561035e-01,5.533734825382329303e-01,2.303973996376031466e-02,1.637394162566524758e-01,4.925513008786566727e-01,1.684987992117230049e-01,1.824944426063006553e-01,2.457769120865087031e-01,1.806873056017005152e-01,4.543408366546839994e-01,2.159775733204122306e-01,4.411087098622260005e-01,2.234104663001274527e-01,4.735841445855176746e-01,2.841521819400341653e-01,2.718281570940225822e-01,2.673697845447539079e-01,2.111745748864382599e-01,3.111963853020294768e-01,5.477832423261514982e-01,6.743190624245298803e-02,3.975311001305727454e-01,3.380013672383521683e-01,1.405817465109659437e-01,6.133082554828522825e-01,2.475047362618924829e-01,2.045113769974906404e-01,2.626561985732562832e-01,2.987753140905757276e-01,3.918559827156231079e-01,1.705351004502782264e-01,5.243452580746558178e-01,1.188949336536800211e-01,2.154699597864384308e-01,2.796422140278959634e-01,3.874688700531443430e-01,6.294790218885213395e-01,2.591590655269998544e-01,6.344256552078492151e-02,6.610448352724617171e-01,1.948012021756730938e-01,4.289939229887131944e-01,4.045924099349559877e-01,3.445449293486020914e-01,2.658474260827952684e-01,3.127775996344649978e-01,4.389422585041558023e-01,2.579933743093108522e-01,2.379275743459193238e-01,5.413602266528578788e-01,1.471027194176220965e-01,3.336133872161402003e-01,3.409283174603616184e-01,1.526804656582821385e-01,6.923101391201403887e-01,1.161630159945271079e-01,1.164813228586670246e-01,2.791477627387103921e-01,1.577957085903257117e-01,4.585811755903031472e-01,1.950300009593995687e-01,4.349379012586250814e-01,2.069210362769327294e-01,2.243673933425496259e-01,2.722419472783257355e-01,3.794859412541151111e-01,5.962505552339263382e-01,2.935632295699645566e-01,4.339363551911599309e-02,3.607764231417268097e-01,2.805318317810224227e-01,5.603974290907042244e-01,4.584771028856952091e-01,3.311823611559769343e-01,9.595266407020984489e-02,2.468243215825711989e-01,3.857032395164016192e-01,1.876492067405048925e-01,3.164186596270266438e-01,3.015302878956957477e-01,2.599351966420463955e-01,6.610448352724617171e-01,1.948012021756730938e-01,4.289939229887131944e-01,4.045924099349559877e-01,3.445449293486020914e-01,2.658474260827952684e-01,3.127775996344649978e-01,4.389422585041558023e-01,2.579933743093108522e-01,2.379275743459193238e-01,5.413602266528578788e-01,1.471027194176220965e-01,3.336133872161402003e-01,3.409283174603616184e-01,1.526804656582821385e-01,6.923101391201403887e-01,1.161630159945271079e-01,1.164813228586670246e-01,2.791477627387103921e-01,1.577957085903257117e-01,4.585811755903031472e-01,1.950300009593995687e-01,4.349379012586250814e-01,2.069210362769327294e-01,2.243673933425496259e-01,2.722419472783257355e-01,3.794859412541151111e-01,5.962505552339263382e-01,2.935632295699645566e-01,4.339363551911599309e-02,7.936690782528352806e-01,2.259127674196003688e-01,3.580048316135888142e-01,5.629175263619162761e-01,1.781068861744444509e-01,2.545539723884566730e-01,3.325259461752827495e-01,5.260096049048200717e-01,3.385823087737176440e-01,2.304468077548442739e-01,4.311705007247294552e-01,2.059349869895506224e-01,1.937833475592209975e-01,3.077608521056982571e-01,2.271830884495376068e-01,6.745714787582917094e-01,1.432721295231221548e-01,9.204213190308091486e-02,2.689908826692553045e-01,3.461571529953185594e-02,4.979726241289370026e-01,3.705656305178599008e-01,3.353057668180615125e-01,2.926071023593642684e-01,2.404704802559448074e-01,2.754777592788978935e-01,3.481889615067977894e-01,5.080847008348859939e-01,2.698455212069919007e-01,7.224916766447507521e-02,2.867185285237239811e-01,4.018060982676425197e-01,6.122202540112685609e-01,4.991939993945944676e-01,2.403240472432069397e-01,1.922711802772736345e-01,3.129885590460995126e-01,2.545223067670686068e-01,1.863301023168245363e-01,4.183052045800535468e-01,3.089094179748959612e-01,2.933382682491894045e-01,7.936690782528352806e-01,2.259127674196003688e-01,3.580048316135888142e-01,5.629175263619162761e-01,1.781068861744444509e-01,2.545539723884566730e-01,3.325259461752827495e-01,5.260096049048200717e-01,3.385823087737176440e-01,2.304468077548442739e-01,4.311705007247294552e-01,2.059349869895506224e-01,1.937833475592209975e-01,3.077608521056982571e-01,2.271830884495376068e-01,6.745714787582917094e-01,1.432721295231221548e-01,9.204213190308091486e-02,2.689908826692553045e-01,3.461571529953185594e-02,4.979726241289370026e-01,3.705656305178599008e-01,3.353057668180615125e-01,2.926071023593642684e-01,2.404704802559448074e-01,2.754777592788978935e-01,3.481889615067977894e-01,5.080847008348859939e-01,2.698455212069919007e-01,7.224916766447507521e-02,8.206162999228876487e-01,2.842041674805246276e-01,2.375547149568908722e-01,6.669932902875547187e-01,1.364338219585744805e-01,2.294014037179544496e-01,3.309104905815760111e-01,5.405443263469559279e-01,3.982463045667978263e-01,2.579149009783348601e-01,2.438044275758009249e-01,2.533538006184005154e-01,3.583406304108713997e-02,2.779422529488395632e-01,2.683908914132309143e-01,5.797828131656724837e-01,2.171272118540916451e-01,1.079661857068487663e-01,2.251143291681762804e-01,1.209327586023414280e-01,4.829716186449554138e-01,4.730077070498305281e-01,2.400470594566899984e-01,3.461407777888729775e-01,1.848483988796274513e-01,2.908780850310376809e-01,3.472788414115029476e-01,3.859522934231488511e-01,1.865779975730204043e-01,1.221804830597120473e-01,2.339601352180431248e-01,5.281545558138787122e-01,6.120046551997734285e-01,5.335713372168036095e-01,3.844630735161420065e-01,2.615415848358400019e-01,3.427793196150044075e-01,1.232839197710058204e-01,1.962436731258007938e-01,4.774088214399616614e-01,2.680368611595385642e-01,2.679696578362077419e-01,8.206162999228876487e-01,2.842041674805246276e-01,2.375547149568908722e-01,6.669932902875547187e-01,1.364338219585744805e-01,2.294014037179544496e-01,3.309104905815760111e-01,5.405443263469559279e-01,3.982463045667978263e-01,2.579149009783348601e-01,2.438044275758009249e-01,2.533538006184005154e-01,3.583406304108713997e-02,2.779422529488395632e-01,2.683908914132309143e-01,5.797828131656724837e-01,2.171272118540916451e-01,1.079661857068487663e-01,2.251143291681762804e-01,1.209327586023414280e-01,4.829716186449554138e-01,4.730077070498305281e-01,2.400470594566899984e-01,3.461407777888729775e-01,1.848483988796274513e-01,2.908780850310376809e-01,3.472788414115029476e-01,3.859522934231488511e-01,1.865779975730204043e-01,1.221804830597120473e-01,7.354254251508112183e-01,3.247331493248964418e-01,1.243395605544100613e-01,6.915216358996170154e-01,2.627302690377756322e-01,1.793085909496332508e-01,3.197449756684807576e-01,5.180544237355642068e-01,4.176431373927071422e-01,2.622317592635339811e-01,4.047883196445532100e-02,3.038987246853218083e-01,2.608166254977070664e-01,2.867608528732458750e-01,2.822831164944505922e-01,4.460404916584520540e-01,2.524184595643516049e-01,1.178749166572660712e-01,1.601367410187785612e-01,2.292594598657388127e-01,4.006420133613548540e-01,4.510941695525509387e-01,1.507445989614489557e-01,3.516248902163516821e-01,5.857155914784251127e-02,2.958962667992705575e-01,3.913057679145369172e-01,2.549291052863380536e-01,7.554041540392718301e-02,1.751222754558711958e-01,2.360308834085278196e-01,6.178189914956606632e-01,5.750023921529142656e-01,5.423500516351956735e-01,5.132385443101282751e-01,2.871798731931705650e-01,3.319678355831427452e-01,5.193977481976056604e-02,2.367926473050432634e-01,4.968014131560873348e-01,2.054274261291751114e-01,1.891822599165838281e-01,7.354254251508112183e-01,3.247331493248964418e-01,1.243395605544100613e-01,6.915216358996170154e-01,2.627302690377756322e-01,1.793085909496332508e-01,3.197449756684807576e-01,5.180544237355642068e-01,4.176431373927071422e-01,2.622317592635339811e-01,4.047883196445532100e-02,3.038987246853218083e-01,2.608166254977070664e-01,2.867608528732458750e-01,2.822831164944505922e-01,4.460404916584520540e-01,2.524184595643516049e-01,1.178749166572660712e-01,1.601367410187785612e-01,2.292594598657388127e-01,4.006420133613548540e-01,4.510941695525509387e-01,1.507445989614489557e-01,3.516248902163516821e-01,5.857155914784251127e-02,2.958962667992705575e-01,3.913057679145369172e-01,2.549291052863380536e-01,7.554041540392718301e-02,1.751222754558711958e-01,0.000000000000000000e+00,0.000000000000000000e+00,0.000000000000000000e+00,0.000000000000000000e+00,0.000000000000000000e+00,0.000000000000000000e+00,0.000000000000000000e+00,0.000000000000000000e+00,0.000000000000000000e+00,0.000000000000000000e+00,0.000000000000000000e+00,0.000000000000000000e+00,0.000000000000000000e+00,0.000000000000000000e+00,0.000000000000000000e+00,0.000000000000000000e+00,0.000000000000000000e+00,0.000000000000000000e+00,0.000000000000000000e+00,0.000000000000000000e+00,0.000000000000000000e+00,0.000000000000000000e+00,0.000000000000000000e+00,0.000000000000000000e+00,0.000000000000000000e+00,0.000000000000000000e+00,0.000000000000000000e+00,0.000000000000000000e+00,0.000000000000000000e+00,0.000000000000000000e+00,0.000000000000000000e+00,0.000000000000000000e+00,0.000000000000000000e+00,0.000000000000000000e+00,0.000000000000000000e+00,0.000000000000000000e+00,0.000000000000000000e+00,0.000000000000000000e+00,0.000000000000000000e+00,0.000000000000000000e+00,0.000000000000000000e+00,0.000000000000000000e+00,0.000000000000000000e+00,0.000000000000000000e+00,0.000000000000000000e+00,0.000000000000000000e+00,0.000000000000000000e+00,0.000000000000000000e+00,0.000000000000000000e+00,0.000000000000000000e+00,0.000000000000000000e+00,0.000000000000000000e+00,0.000000000000000000e+00,0.000000000000000000e+00,0.000000000000000000e+00,0.000000000000000000e+00,0.000000000000000000e+00,0.000000000000000000e+00,0.000000000000000000e+00,0.000000000000000000e+00,0.000000000000000000e+00,0.000000000000000000e+00,0.000000000000000000e+00,0.000000000000000000e+00,0.000000000000000000e+00,0.000000000000000000e+00,0.000000000000000000e+00,0.000000000000000000e+00,0.000000000000000000e+00,0.000000000000000000e+00,0.000000000000000000e+00,0.000000000000000000e+00,0.000000000000000000e+00,0.000000000000000000e+00
8.812982364620758347e-02,2.042972092331558354e-01,1.998268558597974739e-02,1.071854774266521870e-01,4.086562205866806630e-01,2.472290821828277696e-01,2.658521211206893442e-01,1.670099299438534135e-01,4.988049134982758814e-01,3.230190824620231271e-02,2.551191528832713051e-01,2.439741705100599567e-01,3.868812735099996097e-02,3.194139587738308861e-01,3.280868563322819065e-01,2.691276335002468212e-01,2.123520855879167391e-01,4.313788001756865137e-02,3.499854076497009303e-01,7.877298262233954906e-01,3.619132168809198191e-01,2.926948420676291351e-01,1.346462195772820947e-01,5.918377053604249038e-01,2.025667498628235530e-01,2.090765732083592343e-01,4.416791535705213989e-02,2.549131458153746088e-01,5.774378113144457147e-02,5.477727935373211121e-02,1.199579156362474974e-01,3.269538174588500490e-01,4.287419097066087481e-01,8.106790135870876046e-01,8.443199677746184850e-01,3.270156195792190967e-01,3.855422275686711253e-01,2.724443472933836818e-01,1.645378451290930299e-01,5.459187299262507898e-03,8.812982364620758347e-02,2.042972092331558354e-01,1.998268558597974739e-02,1.071854774266521870e-01,4.086562205866806630e-01,2.472290821828277696e-01,2.658521211206893442e-01,1.670099299438534135e-01,4.988049134982758814e-01,3.230190824620231271e-02,2.551191528832713051e-01,2.439741705100599567e-01,3.868812735099996097e-02,3.194139587738308861e-01,3.280868563322819065e-01,2.691276335002468212e-01,2.123520855879167391e-01,4.313788001756865137e-02,3.499854076497009303e-01,7.877298262233954906e-01,3.619132168809198191e-01,2.926948420676291351e-01,1.346462195772820947e-01,5.918377053604249038e-01,2.025667498628235530e-01,2.090765732083592343e-01,4.416791535705213989e-02,2.549131458153746088e-01,5.774378113144457147e-02,5.477727935373211121e-02,1.199579156362474974e-01,3.269538174588500490e-01,2.050809018495103886e-01,2.382677398443504291e-01,1.325462209951618620e-01,1.597818766439978999e-01,3.677066457590011384e-01,2.337741779855726787e-01,2.263880051276089822e-01,1.483591968745171796e-01,4.708835977424036257e-01,3.073493059632916302e-01,2.385850812624684680e-01,2.373261657385576373e-01,2.388710586020149906e-02,3.167529485900543729e-01,3.141727592855196871e-01,2.867117663724056964e-01,2.817949227545961666e-01,1.317157814103355751e-01,3.909779949375200014e-01,7.128008818582577399e-01,3.520978962268653811e-01,2.935990388671237405e-01,1.867739249284565139e-01,5.974059766008823491e-01,2.664661510268404032e-01,3.369285763467272377e-01,4.249887034985304346e-02,3.509491170777004898e-01,1.585310987343107048e-01,1.395667414787900573e-01,1.259409261640063726e-01,3.153071634314885130e-01,4.184537221944267804e-01,8.360379793562997541e-01,8.197261787715897086e-01,3.269709889228407107e-01,3.614004496747877382e-01,3.703706271328891519e-01,1.677355104203082647e-01,1.364149575822669602e-01,2.050809018495103886e-01,2.382677398443504291e-01,1.325462209951618620e-01,1.597818766439978999e-01,3.677066457590011384e-01,2.337741779855726787e-01,2.263880051276089822e-01,1.483591968745171796e-01,4.708835977424036257e-01,3.073493059632916302e-01,2.385850812624684680e-01,2.373261657385576373e-01,2.388710586020149906e-02,3.167529485900543729e-01,3.141727592855196871e-01,2.867117663724056964e-01,2.817949227545961666e-01,1.317157814103355751e-01,3.909779949375200014e-01,7.128008818582577399e-01,3.520978962268653811e-01,2.935990388671237405e-01,1.867739249284565139e-01,5.974059766008823491e-01,2.664661510268404032e-01,3.369285763467272377e-01,4.249887034985304346e-02,3.509491170777004898e-01,1.585310987343107048e-01,1.395667414787900573e-01,1.259409261640063726e-01,3.153071634314885130e-01,3.245588045744870476e-01,3.247480896490494984e-01,2.521565242290181863e-01,2.395178310111890085e-01,2.712288573193148422e-01,2.047633647939369195e-01,1.667585328928238297e-01,1.495564137778150893e-01,3.953707748597868332e-01,5.577595042517407009e-01,1.956344729106645197e-01,2.088750475584850164e-01,4.113368543163477969e-02,3.038751602365332705e-01,2.757461324904527666e-01,3.247887917219409171e-01,4.046095405633785558e-01,2.160008852032127002e-01,4.760390844570271396e-01,5.229990823653015708e-01,3.268503891295505559e-01,2.933472831030092820e-01,2.877569880762078647e-01,5.984269253951872702e-01,3.697483633104666767e-01,5.131624332389923548e-01,5.392284496284512757e-02,4.804938847671554880e-01,2.652533188533464092e-01,2.580153796126357646e-01,1.313013300571508890e-01,2.887811594754434164e-01,3.740913220981765264e-01,8.704203989181100720e-01,7.441228473778450647e-01,3.214972159871126167e-01,2.978746313022032077e-01,5.249372378370780190e-01,1.714705831026021587e-01,2.688343903569374027e-01,3.245588045744870476e-01,3.247480896490494984e-01,2.521565242290181863e-01,2.395178310111890085e-01,2.712288573193148422e-01,2.047633647939369195e-01,1.667585328928238297e-01,1.495564137778150893e-01,3.953707748597868332e-01,5.577595042517407009e-01,1.956344729106645197e-01,2.088750475584850164e-01,4.113368543163477969e-02,3.038751602365332705e-01,2.757461324904527666e-01,3.247887917219409171e-01,4.046095405633785558e-01,2.160008852032127002e-01,4.760390844570271396e-01,5.229990823653015708e-01,3.268503891295505559e-01,2.933472831030092820e-01,2.877569880762078647e-01,5.984269253951872702e-01,3.697483633104666767e-01,5.131624332389923548e-01,5.392284496284512757e-02,4.804938847671554880e-01,2.652533188533464092e-01,2.580153796126357646e-01,1.313013300571508890e-01,2.887811594754434164e-01,3.520712731141121266e-01,4.304317273059884430e-01,3.491218325363443786e-01,2.909405810476797805e-01,2.194440458331886890e-01,1.892277778069702820e-01,2.453712081751479313e-01,2.507185967185197040e-01,2.948155730301802446e-01,7.117524561873482813e-01,1.510203914677536174e-01,1.444309002097740047e-01,1.303563123185897399e-01,2.708648594812442245e-01,2.224111337154540124e-01,3.614964742550839660e-01,5.025632554004187957e-01,2.379730386457217517e-01,5.499135984378754616e-01,3.588039222943772422e-01,2.956252408908799922e-01,2.843976676681315707e-01,3.926351578723314972e-01,5.653118881441767662e-01,4.302644159878469265e-01,6.068450516610937040e-01,7.979153124246672613e-02,5.106402626345087903e-01,3.119835071064140930e-01,3.634450283800972903e-01,1.189194731045180725e-01,2.650022069952658876e-01,2.785395692929990008e-01,8.399108896747988773e-01,6.149704808754327123e-01,3.012418086869905753e-01,2.185445093131078154e-01,6.166531232085118441e-01,1.701355611712496441e-01,3.906054423401698616e-01,3.520712731141121266e-01,4.304317273059884430e-01,3.491218325363443786e-01,2.909405810476797805e-01,2.194440458331886890e-01,1.892277778069702820e-01,2.453712081751479313e-01,2.507185967185197040e-01,2.948155730301802446e-01,7.117524561873482813e-01,1.510203914677536174e-01,1.444309002097740047e-01,1.303563123185897399e-01,2.708648594812442245e-01,2.224111337154540124e-01,3.614964742550839660e-01,5.025632554004187957e-01,2.379730386457217517e-01,5.499135984378754616e-01,3.588039222943772422e-01,2.956252408908799922e-01,2.843976676681315707e-01,3.926351578723314972e-01,5.653118881441767662e-01,4.302644159878469265e-01,6.068450516610937040e-01,7.979153124246672613e-02,5.106402626345087903e-01,3.119835071064140930e-01,3.634450283800972903e-01,1.189194731045180725e-01,2.650022069952658876e-01,2.761588921002244290e-01,5.169424248512021203e-01,4.096601387466989874e-01,3.017312014171213419e-01,2.985254161814698826e-01,2.057311695717282396e-01,3.898673356694021264e-01,3.918403491730637622e-01,1.994302219756999006e-01,7.477577469237809416e-01,1.503764636654068010e-01,5.017840504532564833e-02,2.519164471263868887e-01,2.127422464293263482e-01,1.687191943591101473e-01,3.898088817014120910e-01,5.467484222769980473e-01,1.861150104988330556e-01,5.832958200404548821e-01,4.448772665820522332e-01,2.647561923598783507e-01,2.581569094266916164e-01,4.841219430438023497e-01,4.818671174824385450e-01,4.202925143818440068e-01,5.896963881932464346e-01,9.258458744618454361e-02,4.077471314888105880e-01,2.854946730649769449e-01,4.337018633435688608e-01,1.029301350709197621e-01,2.506727066063679232e-01,1.849353096670488805e-01,7.032172825477404077e-01,4.355017878284666022e-01,2.650330497246484729e-01,1.565333771525916629e-01,6.100274128013684072e-01,1.764141722176866267e-01,4.906199396636052312e-01,2.761588921002244290e-01,5.169424248512021203e-01,4.096601387466989874e-01,3.017312014171213419e-01,2.985254161814698826e-01,2.057311695717282396e-01,3.898673356694021264e-01,3.918403491730637622e-01,1.994302219756999006e-01,7.477577469237809416e-01,1.503764636654068010e-01,5.017840504532564833e-02,2.519164471263868887e-01,2.127422464293263482e-01,1.687191943591101473e-01,3.898088817014120910e-01,5.467484222769980473e-01,1.861150104988330556e-01,5.832958200404548821e-01,4.448772665820522332e-01,2.647561923598783507e-01,2.581569094266916164e-01,4.841219430438023497e-01,4.818671174824385450e-01,4.202925143818440068e-01,5.896963881932464346e-01,9.258458744618454361e-02,4.077471314888105880e-01,2.854946730649769449e-01,4.337018633435688608e-01,1.029301350709197621e-01,2.506727066063679232e-01,1.583631348038581632e-01,5.501003161030516564e-01,4.229828318971474710e-01,2.800045365931735364e-01,4.003082464139182672e-01,2.398904704266414389e-01,4.798682426219820218e-01,5.116707287726064424e-01,1.334198601372306170e-01,6.708083505163862093e-01,1.979207438845294320e-01,1.099705050742746243e-01,3.873988564471061435e-01,1.424171155557669988e-01,1.295736624594792941e-01,4.136997404246644527e-01,5.284300752316110072e-01,7.985240763881440440e-02,5.699489826239417800e-01,6.376378346215088033e-01,2.302337395447834889e-01,2.099162241181046773e-01,5.494880836797547685e-01,3.572504986810333127e-01,3.394773586245293240e-01,4.770015032253731579e-01,7.184600811396615883e-02,1.982003441652603337e-01,1.936165518278409881e-01,4.477678274286084892e-01,1.547555363941698348e-01,2.325710147831015484e-01,2.924068600563271558e-01,4.692430391115904875e-01,2.207583130334472288e-01,2.274922339445269448e-01,1.544413791345912723e-01,5.090978346705155033e-01,2.142680764405212324e-01,5.550105186845254446e-01,1.583631348038581632e-01,5.501003161030516564e-01,4.229828318971474710e-01,2.800045365931735364e-01,4.003082464139182672e-01,2.398904704266414389e-01,4.798682426219820218e-01,5.116707287726064424e-01,1.334198601372306170e-01,6.708083505163862093e-01,1.979207438845294320e-01,1.099705050742746243e-01,3.873988564471061435e-01,1.424171155557669988e-01,1.295736624594792941e-01,4.136997404246644527e-01,5.284300752316110072e-01,7.985240763881440440e-02,5.699489826239417800e-01,6.376378346215088033e-01,2.302337395447834889e-01,2.099162241181046773e-01,5.494880836797547685e-01,3.572504986810333127e-01,3.394773586245293240e-01,4.770015032253731579e-01,7.184600811396615883e-02,1.982003441652603337e-01,1.936165518278409881e-01,4.477678274286084892e-01,1.547555363941698348e-01,2.325710147831015484e-01,2.422856756950781953e-01,5.104624951904471741e-01,3.858451587257599735e-01,2.508518782930381774e-01,4.425373416366382706e-01,2.782733624778881421e-01,4.661873915874500396e-01,5.777689282516286218e-01,9.429548476548176017e-02,5.125241997176667175e-01,2.487705426340127424e-01,2.400104632855646070e-01,5.118762728865943190e-01,1.209407383637625261e-01,1.081125502346272221e-01,4.337730722295505825e-01,4.529508993991970822e-01,1.278345246461020379e-01,5.221660224484774293e-01,7.462035176472258113e-01,1.807961318614190460e-01,1.468822800714038590e-01,5.771518502385194482e-01,2.271968823943565641e-01,2.084672758813255200e-01,3.202513237600780882e-01,1.281860337569097966e-02,1.400158039067459781e-01,6.327151953156009978e-02,3.928817527276979304e-01,2.781496630598013775e-01,1.985759260581257402e-01,5.091900819747595675e-01,2.034507551548052073e-01,4.821499661336024062e-02,2.135823548868746591e-01,2.293048107934733126e-01,3.433620779764575692e-01,2.816106710079240849e-01,5.708616208919118362e-01,2.422856756950781953e-01,5.104624951904471741e-01,3.858451587257599735e-01,2.508518782930381774e-01,4.425373416366382706e-01,2.782733624778881421e-01,4.661873915874500396e-01,5.777689282516286218e-01,9.429548476548176017e-02,5.125241997176667175e-01,2.487705426340127424e-01,2.400104632855646070e-01,5.118762728865943190e-01,1.209407383637625261e-01,1.081125502346272221e-01,4.337730722295505825e-01,4.529508993991970822e-01,1.278345246461020379e-01,5.221660224484774293e-01,7.462035176472258113e-01,1.807961318614190460e-01,1.468822800714038590e-01,5.771518502385194482e-01,2.271968823943565641e-01,2.084672758813255200e-01,3.202513237600780882e-01,1.281860337569097966e-02,1.400158039067459781e-01,6.327151953156009978e-02,3.928817527276979304e-01,2.781496630598013775e-01,1.985759260581257402e-01,4.471612697230941125e-01,4.005894102605881968e-01,3.061665922475860779e-01,2.441077743146082557e-01,4.044435002638983034e-01,3.269543353340351732e-01,3.448798488943846108e-01,5.792042144261191350e-01,7.518579840348137144e-02,3.303127840567237627e-01,2.769021588684468793e-01,3.407347671091919827e-01,5.991237216319130754e-01,1.859739702949909090e-01,9.006365838872905372e-02,4.395811566514523094e-01,3.422611993011520637e-01,2.977123410701863482e-01,4.679658621886246261e-01,7.144793948596374067e-01,1.084535628778371535e-01,1.123092244929123074e-01,5.587651504139166114e-01,1.556589154459015190e-01,9.631226685989313641e-02,2.167462537195706529e-01,8.110283716162954015e-02,3.847871168919982932e-01,8.263885184156495589e-02,2.707885438051302884e-01,4.263483081886087489e-01,1.644619945506856362e-01,6.910553711982648784e-01,1.974909650264372596e-01,2.260988949830081418e-01,2.285559720690853724e-01,3.541679208546386071e-01,1.582484847674880402e-01,3.516332828478671013e-01,5.309470732983125885e-01,4.471612697230941125e-01,4.005894102605881968e-01,3.061665922475860779e-01,2.441077743146082557e-01,4.044435002638983034e-01,3.269543353340351732e-01,3.448798488943846108e-01,5.792042144261191350e-01,7.518579840348137144e-02,3.303127840567237627e-01,2.769021588684468793e-01,3.407347671091919827e-01,5.991237216319130754e-01,1.859739702949909090e-01,9.006365838872905372e-02,4.395811566514523094e-01,3.422611993011520637e-01,2.977123410701863482e-01,4.679658621886246261e-01,7.144793948596374067e-01,1.084535628778371535e-01,1.123092244929123074e-01,5.587651504139166114e-01,1.556589154459015190e-01,9.631226685989313641e-02,2.167462537195706529e-01,8.110283716162954015e-02,3.847871168919982932e-01,8.263885184156495589e-02,2.707885438051302884e-01,4.263483081886087489e-01,1.644619945506856362e-01,6.133082554828522825e-01,2.475047362618924829e-01,2.045113769974906404e-01,2.626561985732562832e-01,2.987753140905757276e-01,3.918559827156231079e-01,1.705351004502782264e-01,5.243452580746558178e-01,1.188949336536800211e-01,2.154699597864384308e-01,2.796422140278959634e-01,3.874688700531443430e-01,6.294790218885213395e-01,2.591590655269998544e-01,6.344256552078492151e-02,4.168254195338976786e-01,2.529805504303846431e-01,4.518647587630473250e-01,4.416814309151561035e-01,5.533734825382329303e-01,2.303973996376031466e-02,1.637394162566524758e-01,4.925513008786566727e-01,1.684987992117230049e-01,1.824944426063006553e-01,2.457769120865087031e-01,1.806873056017005152e-01,5.626199082182820055e-01,1.885190236725198809e-01,1.011439296332281301e-01,5.651132108803426091e-01,1.740366823975402488e-01,7.723051592746260630e-01,3.907629266259413092e-01,3.790333212395339824e-01,2.472584545440743853e-01,4.964889993366761733e-01,6.880776848832044490e-02,3.984881802922357052e-01,4.378015153881752441e-01,6.133082554828522825e-01,2.475047362618924829e-01,2.045113769974906404e-01,2.626561985732562832e-01,2.987753140905757276e-01,3.918559827156231079e-01,1.705351004502782264e-01,5.243452580746558178e-01,1.188949336536800211e-01,2.154699597864384308e-01,2.796422140278959634e-01,3.874688700531443430e-01,6.294790218885213395e-01,2.591590655269998544e-01,6.344256552078492151e-02,4.168254195338976786e-01,2.529805504303846431e-01,4.518647587630473250e-01,4.416814309151561035e-01,5.533734825382329303e-01,2.303973996376031466e-02,1.637394162566524758e-01,4.925513008786566727e-01,1.684987992117230049e-01,1.824944426063006553e-01,2.457769120865087031e-01,1.806873056017005152e-01,5.626199082182820055e-01,1.885190236725198809e-01,1.011439296332281301e-01,5.651132108803426091e-01,1.740366823975402488e-01,6.923101391201403887e-01,1.161630159945271079e-01,1.164813228586670246e-01,2.791477627387103921e-01,1.577957085903257117e-01,4.585811755903031472e-01,1.950300009593995687e-01,4.349379012586250814e-01,2.069210362769327294e-01,2.243673933425496259e-01,2.722419472783257355e-01,3.794859412541151111e-01,5.962505552339263382e-01,2.935632295699645566e-01,4.339363551911599309e-02,3.607764231417268097e-01,2.805318317810224227e-01,5.603974290907042244e-01,4.584771028856952091e-01,3.311823611559769343e-01,9.595266407020984489e-02,2.468243215825711989e-01,3.857032395164016192e-01,1.876492067405048925e-01,3.164186596270266438e-01,3.015302878956957477e-01,2.599351966420463955e-01,6.078050343686989265e-01,2.368143054679401616e-01,1.020260452144340774e-01,6.657232879732184472e-01,2.219769467858914436e-01,7.240299965042905628e-01,5.011394646842912692e-01,4.565995075338836195e-01,2.482915245245043423e-01,6.201697569554388556e-01,1.738204690949071152e-01,4.062584707766104253e-01,3.056120350555046605e-01,6.923101391201403887e-01,1.161630159945271079e-01,1.164813228586670246e-01,2.791477627387103921e-01,1.577957085903257117e-01,4.585811755903031472e-01,1.950300009593995687e-01,4.349379012586250814e-01,2.069210362769327294e-01,2.243673933425496259e-01,2.722419472783257355e-01,3.794859412541151111e-01,5.962505552339263382e-01,2.935632295699645566e-01,4.339363551911599309e-02,3.607764231417268097e-01,2.805318317810224227e-01,5.603974290907042244e-01,4.584771028856952091e-01,3.311823611559769343e-01,9.595266407020984489e-02,2.468243215825711989e-01,3.857032395164016192e-01,1.876492067405048925e-01,3.164186596270266438e-01,3.015302878956957477e-01,2.599351966420463955e-01,6.078050343686989265e-01,2.368143054679401616e-01,1.020260452144340774e-01,6.657232879732184472e-01,2.219769467858914436e-01,6.745714787582917094e-01,1.432721295231221548e-01,9.204213190308091486e-02,2.689908826692553045e-01,3.461571529953185594e-02,4.979726241289370026e-01,3.705656305178599008e-01,3.353057668180615125e-01,2.926071023593642684e-01,2.404704802559448074e-01,2.754777592788978935e-01,3.481889615067977894e-01,5.080847008348859939e-01,2.698455212069919007e-01,7.224916766447507521e-02,2.867185285237239811e-01,4.018060982676425197e-01,6.122202540112685609e-01,4.991939993945944676e-01,2.403240472432069397e-01,1.922711802772736345e-01,3.129885590460995126e-01,2.545223067670686068e-01,1.863301023168245363e-01,4.183052045800535468e-01,3.089094179748959612e-01,2.933382682491894045e-01,5.057857912743251028e-01,2.142731661977086421e-01,2.769488342549498161e-01,7.059654628777365382e-01,2.544402297672948565e-01,5.546987046778107944e-01,5.057442089455873591e-01,4.510830438230081785e-01,2.344276876164991807e-01,6.920017049001302434e-01,2.514819047909155336e-01,3.703408586202338593e-01,1.597549008011887595e-01,6.745714787582917094e-01,1.432721295231221548e-01,9.204213190308091486e-02,2.689908826692553045e-01,3.461571529953185594e-02,4.979726241289370026e-01,3.705656305178599008e-01,3.353057668180615125e-01,2.926071023593642684e-01,2.404704802559448074e-01,2.754777592788978935e-01,3.481889615067977894e-01,5.080847008348859939e-01,2.698455212069919007e-01,7.224916766447507521e-02,2.867185285237239811e-01,4.018060982676425197e-01,6.122202540112685609e-01,4.991939993945944676e-01,2.403240472432069397e-01,1.922711802772736345e-01,3.129885590460995126e-01,2.545223067670686068e-01,1.863301023168245363e-01,4.183052045800535468e-01,3.089094179748959612e-01,2.933382682491894045e-01,5.057857912743251028e-01,2.142731661977086421e-01,2.769488342549498161e-01,7.059654628777365382e-01,2.544402297672948565e-01,5.797828131656724837e-01,2.171272118540916451e-01,1.079661857068487663e-01,2.251143291681762804e-01,1.209327586023414280e-01,4.829716186449554138e-01,4.730077070498305281e-01,2.400470594566899984e-01,3.461407777888729775e-01,1.848483988796274513e-01,2.908780850310376809e-01,3.472788414115029476e-01,3.859522934231488511e-01,1.865779975730204043e-01,1.221804830597120473e-01,2.339601352180431248e-01,5.281545558138787122e-01,6.120046551997734285e-01,5.335713372168036095e-01,3.844630735161420065e-01,2.615415848358400019e-01,3.427793196150044075e-01,1.232839197710058204e-01,1.962436731258007938e-01,4.774088214399616614e-01,2.680368611595385642e-01,2.679696578362077419e-01,2.827222352176423925e-01,1.280207451928781215e-01,4.081065877551331433e-01,6.739394187065591568e-01,2.364153309597042674e-01,3.122544135602371984e-01,4.411767920432618229e-01,3.798372874734232130e-01,2.340855867401807067e-01,6.937388258568853994e-01,2.925572330492196560e-01,2.959611694851129737e-01,5.199338845203428650e-02,5.797828131656724837e-01,2.171272118540916451e-01,1.079661857068487663e-01,2.251143291681762804e-01,1.209327586023414280e-01,4.829716186449554138e-01,4.730077070498305281e-01,2.400470594566899984e-01,3.461407777888729775e-01,1.848483988796274513e-01,2.908780850310376809e-01,3.472788414115029476e-01,3.859522934231488511e-01,1.865779975730204043e-01,1.221804830597120473e-01,2.339601352180431248e-01,5.281545558138787122e-01,6.120046551997734285e-01,5.335713372168036095e-01,3.844630735161420065e-01,2.615415848358400019e-01,3.427793196150044075e-01,1.232839197710058204e-01,1.962436731258007938e-01,4.774088214399616614e-01,2.680368611595385642e-01,2.679696578362077419e-01,2.827222352176423925e-01,1.280207451928781215e-01,4.081065877551331433e-01,6.739394187065591568e-01,2.364153309597042674e-01,4.460404916584520540e-01,2.524184595643516049e-01,1.178749166572660712e-01,1.601367410187785612e-01,2.292594598657388127e-01,4.006420133613548540e-01,4.510941695525509387e-01,1.507445989614489557e-01,3.516248902163516821e-01,5.857155914784251127e-02,2.958962667992705575e-01,3.913057679145369172e-01,2.549291052863380536e-01,7.554041540392718301e-02,1.751222754558711958e-01,2.360308834085278196e-01,6.178189914956606632e-01,5.750023921529142656e-01,5.423500516351956735e-01,5.132385443101282751e-01,2.871798731931705650e-01,3.319678355831427452e-01,5.193977481976056604e-02,2.367926473050432634e-01,4.968014131560873348e-01,2.054274261291751114e-01,1.891822599165838281e-01,1.504596423058859704e-02,1.481709326577878433e-02,4.735252507826921975e-01,5.707857459106310261e-01,1.594924747168472989e-01,1.412768730399770467e-01,3.827872690993939786e-01,2.966031550770681924e-01,2.736386764871694965e-01,6.305963639927871789e-01,3.136685892784016327e-01,1.942071230777872859e-01,1.015574979700303027e-01,4.460404916584520540e-01,2.524184595643516049e-01,1.178749166572660712e-01,1.601367410187785612e-01,2.292594598657388127e-01,4.006420133613548540e-01,4.510941695525509387e-01,1.507445989614489557e-01,3.516248902163516821e-01,5.857155914784251127e-02,2.958962667992705575e-01,3.913057679145369172e-01,2.549291052863380536e-01,7.554041540392718301e-02,1.751222754558711958e-01,2.360308834085278196e-01,6.178189914956606632e-01,5.750023921529142656e-01,5.423500516351956735e-01,5.132385443101282751e-01,2.871798731931705650e-01,3.319678355831427452e-01,5.193977481976056604e-02,2.367926473050432634e-01,4.968014131560873348e-01,2.054274261291751114e-01,1.891822599165838281e-01,1.504596423058859704e-02,1.481709326577878433e-02,4.735252507826921975e-01,5.707857459106310261e-01,1.594924747168472989e-01,0.000000000000000000e+00,0.000000000000000000e+00,0.000000000000000000e+00,0.000000000000000000e+00,0.000000000000000000e+00,0.000000000000000000e+00,0.000000000000000000e+00,0.000000000000000000e+00,0.000000000000000000e+00,0.000000000000000000e+00,0.000000000000000000e+00,0.000000000000000000e+00,0.000000000000000000e+00,0.000000000000000000e+00,0.000000000000000000e+00,0.000000000000000000e+00,0.000000000000000000e+00,0.000000000000000000e+00,0.000000000000000000e+00,0.000000000000000000e+00,0.000000000000000000e+00,0.000000000000000000e+00,0.000000000000000000e+00,0.000000000000000000e+00,0.000000000000000000e+00,0.000000000000000000e+00,0.000000000000000000e+00,0.000000000000000000e+00,0.000000000000000000e+00,0.000000000000000000e+00,0.000000000000000000e+00,0.000000000000000000e+00,0.000000000000000000e+00,0.000000000000000000e+00,0.000000000000000000e+00,0.000000000000000000e+00,0.000000000000000000e+00,0.000000000000000000e+00,0.000000000000000000e+00,0.000000000000000000e+00,0.000000000000000000e+00,0.000000000000000000e+00,0.000000000000000000e+00,0.000000000000000000e+00,0.000000000000000000e+00,0.000000000000000000e+00,0.000000000000000000e+00,0.000000000000000000e+00,0.000000000000000000e+00,0.000000000000000000e+00,0.000000000000000000e+00,0.000000000000000000e+00,0.000000000000000000e+00,0.000000000000000000e+00,0.000000000000000000e+00,0.000000000000000000e+00,0.000000000000000000e+00,0.000000000000000000e+00,0.000000000000000000e+00,0.000000000000000000e+00,0.000000000000000000e+00,0.000000000000000000e+00,0.000000000000000000e+00,0.000000000000000000e+00,0.000000000000000000e+00,0.000000000000000000e+00,0.000000000000000000e+00,0.000000000000000000e+00,0.000000000000000000e+00,0.000000000000000000e+00,0.000000000000000000e+00,0.000000000000000000e+00,0.000000000000000000e+00,0.000000000000000000e+00
3.280868563322819065e-01,2.691276335002468212e-01,2.123520855879167391e-01,4.313788001756865137e-02,3.499854076497009303e-01,7.877298262233954906e-01,3.619132168809198191e-01,2.926948420676291351e-01,1.346462195772820947e-01,5.918377053604249038e-01,2.025667498628235530e-01,2.090765732083592343e-01,4.416791535705213989e-02,2.549131458153746088e-01,5.774378113144457147e-02,5.477727935373211121e-02,1.199579156362474974e-01,3.269538174588500490e-01,4.287419097066087481e-01,8.106790135870876046e-01,8.443199677746184850e-01,3.270156195792190967e-01,3.855422275686711253e-01,2.724443472933836818e-01,1.645378451290930299e-01,5.459187299262507898e-03,1.890114847952208132e-01,1.036009544452496378e-01,5.296441715624116142e-01,8.541053034997116156e-02,1.726339228974332896e-01,4.961680230291981575e-01,1.277655835095323766e-01,3.382224040727994652e-01,1.485516966603092348e-01,6.724276703216133244e-01,4.094390474446881201e-01,3.444438175232797938e-01,4.472413444037322966e-02,8.187750913554279197e-01,3.280868563322819065e-01,2.691276335002468212e-01,2.123520855879167391e-01,4.313788001756865137e-02,3.499854076497009303e-01,7.877298262233954906e-01,3.619132168809198191e-01,2.926948420676291351e-01,1.346462195772820947e-01,5.918377053604249038e-01,2.025667498628235530e-01,2.090765732083592343e-01,4.416791535705213989e-02,2.549131458153746088e-01,5.774378113144457147e-02,5.477727935373211121e-02,1.199579156362474974e-01,3.269538174588500490e-01,4.287419097066087481e-01,8.106790135870876046e-01,8.443199677746184850e-01,3.270156195792190967e-01,3.855422275686711253e-01,2.724443472933836818e-01,1.645378451290930299e-01,5.459187299262507898e-03,1.890114847952208132e-01,1.036009544452496378e-01,5.296441715624116142e-01,8.541053034997116156e-02,1.726339228974332896e-01,4.961680230291981575e-01,3.141727592855196871e-01,2.867117663724056964e-01,2.817949227545961666e-01,1.317157814103355751e-01,3.909779949375200014e-01,7.128008818582577399e-01,3.520978962268653811e-01,2.935990388671237405e-01,1.867739249284565139e-01,5.974059766008823491e-01,2.664661510268404032e-01,3.369285763467272377e-01,4.249887034985304346e-02,3.509491170777004898e-01,1.585310987343107048e-01,1.395667414787900573e-01,1.259409261640063726e-01,3.153071634314885130e-01,4.184537221944267804e-01,8.360379793562997541e-01,8.197261787715897086e-01,3.269709889228407107e-01,3.614004496747877382e-01,3.703706271328891519e-01,1.677355104203082647e-01,1.364149575822669602e-01,2.354674519331180216e-01,1.288865351534421999e-01,5.143515009969618079e-01,1.643952477554767588e-01,1.686255183398996105e-01,4.865658887886773476e-01,1.089791490630993703e-01,3.271419073509436726e-01,2.051755610157440513e-01,6.321159619986036482e-01,3.979245702084635572e-01,3.116809233056622164e-01,1.350082709813468784e-01,7.905730744136006960e-01,3.141727592855196871e-01,2.867117663724056964e-01,2.817949227545961666e-01,1.317157814103355751e-01,3.909779949375200014e-01,7.128008818582577399e-01,3.520978962268653811e-01,2.935990388671237405e-01,1.867739249284565139e-01,5.974059766008823491e-01,2.664661510268404032e-01,3.369285763467272377e-01,4.249887034985304346e-02,3.509491170777004898e-01,1.585310987343107048e-01,1.395667414787900573e-01,1.259409261640063726e-01,3.153071634314885130e-01,4.184537221944267804e-01,8.360379793562997541e-01,8.197261787715897086e-01,3.269709889228407107e-01,3.614004496747877382e-01,3.703706271328891519e-01,1.677355104203082647e-01,1.364149575822669602e-01,2.354674519331180216e-01,1.288865351534421999e-01,5.143515009969618079e-01,1.643952477554767588e-01,1.686255183398996105e-01,4.865658887886773476e-01,2.757461324904527666e-01,3.247887917219409171e-01,4.046095405633785558e-01,2.160008852032127002e-01,4.760390844570271396e-01,5.229990823653015708e-01,3.268503891295505559e-01,2.933472831030092820e-01,2.877569880762078647e-01,5.984269253951872702e-01,3.697483633104666767e-01,5.131624332389923548e-01,5.392284496284512757e-02,4.804938847671554880e-01,2.652533188533464092e-01,2.580153796126357646e-01,1.313013300571508890e-01,2.887811594754434164e-01,3.740913220981765264e-01,8.704203989181100720e-01,7.441228473778450647e-01,3.214972159871126167e-01,2.978746313022032077e-01,5.249372378370780190e-01,1.714705831026021587e-01,2.688343903569374027e-01,3.049231492002894561e-01,1.688581437277131003e-01,4.720776226721427049e-01,2.748852191850250093e-01,1.525221406037339522e-01,4.563680036403316431e-01,8.230232683334819110e-02,2.983549194031976937e-01,3.128793065047006938e-01,5.201606260560669437e-01,3.669398358327503051e-01,2.489534315970695355e-01,2.261789731385699387e-01,7.113333058952834298e-01,2.757461324904527666e-01,3.247887917219409171e-01,4.046095405633785558e-01,2.160008852032127002e-01,4.760390844570271396e-01,5.229990823653015708e-01,3.268503891295505559e-01,2.933472831030092820e-01,2.877569880762078647e-01,5.984269253951872702e-01,3.697483633104666767e-01,5.131624332389923548e-01,5.392284496284512757e-02,4.804938847671554880e-01,2.652533188533464092e-01,2.580153796126357646e-01,1.313013300571508890e-01,2.887811594754434164e-01,3.740913220981765264e-01,8.704203989181100720e-01,7.441228473778450647e-01,3.214972159871126167e-01,2.978746313022032077e-01,5.249372378370780190e-01,1.714705831026021587e-01,2.688343903569374027e-01,3.049231492002894561e-01,1.688581437277131003e-01,4.720776226721427049e-01,2.748852191850250093e-01,1.525221406037339522e-01,4.563680036403316431e-01,2.224111337154540124e-01,3.614964742550839660e-01,5.025632554004187957e-01,2.379730386457217517e-01,5.499135984378754616e-01,3.588039222943772422e-01,2.956252408908799922e-01,2.843976676681315707e-01,3.926351578723314972e-01,5.653118881441767662e-01,4.302644159878469265e-01,6.068450516610937040e-01,7.979153124246672613e-02,5.106402626345087903e-01,3.119835071064140930e-01,3.634450283800972903e-01,1.189194731045180725e-01,2.650022069952658876e-01,2.785395692929990008e-01,8.399108896747988773e-01,6.149704808754327123e-01,3.012418086869905753e-01,2.185445093131078154e-01,6.166531232085118441e-01,1.701355611712496441e-01,3.906054423401698616e-01,3.240394544170630553e-01,1.890073535593159160e-01,4.119136657978533234e-01,3.538632086591600445e-01,1.244121425621762672e-01,4.064817440390609549e-01,1.189201364904855923e-01,2.644276519708128048e-01,4.189421715048416428e-01,3.614472159075634572e-01,3.272278490450715727e-01,2.683792282832063170e-01,2.746333429821676830e-01,5.960805773157754617e-01,2.224111337154540124e-01,3.614964742550839660e-01,5.025632554004187957e-01,2.379730386457217517e-01,5.499135984378754616e-01,3.588039222943772422e-01,2.956252408908799922e-01,2.843976676681315707e-01,3.926351578723314972e-01,5.653118881441767662e-01,4.302644159878469265e-01,6.068450516610937040e-01,7.979153124246672613e-02,5.106402626345087903e-01,3.119835071064140930e-01,3.634450283800972903e-01,1.189194731045180725e-01,2.650022069952658876e-01,2.785395692929990008e-01,8.399108896747988773e-01,6.149704808754327123e-01,3.012418086869905753e-01,2.185445093131078154e-01,6.166531232085118441e-01,1.701355611712496441e-01,3.906054423401698616e-01,3.240394544170630553e-01,1.890073535593159160e-01,4.119136657978533234e-01,3.538632086591600445e-01,1.244121425621762672e-01,4.064817440390609549e-01,1.687191943591101473e-01,3.898088817014120910e-01,5.467484222769980473e-01,1.861150104988330556e-01,5.832958200404548821e-01,4.448772665820522332e-01,2.647561923598783507e-01,2.581569094266916164e-01,4.841219430438023497e-01,4.818671174824385450e-01,4.202925143818440068e-01,5.896963881932464346e-01,9.258458744618454361e-02,4.077471314888105880e-01,2.854946730649769449e-01,4.337018633435688608e-01,1.029301350709197621e-01,2.506727066063679232e-01,1.849353096670488805e-01,7.032172825477404077e-01,4.355017878284666022e-01,2.650330497246484729e-01,1.565333771525916629e-01,6.100274128013684072e-01,1.764141722176866267e-01,4.906199396636052312e-01,2.666113552565918532e-01,1.876987722249399970e-01,3.440387311268225390e-01,3.807162425123331584e-01,1.216768596771191230e-01,3.492016338894616823e-01,1.807240250770332235e-01,2.425222054324039922e-01,5.007468376843159374e-01,1.936088547146238847e-01,2.961487639377564096e-01,3.955894421718979537e-01,3.058152224261927454e-01,4.664844356571602457e-01,1.687191943591101473e-01,3.898088817014120910e-01,5.467484222769980473e-01,1.861150104988330556e-01,5.832958200404548821e-01,4.448772665820522332e-01,2.647561923598783507e-01,2.581569094266916164e-01,4.841219430438023497e-01,4.818671174824385450e-01,4.202925143818440068e-01,5.896963881932464346e-01,9.258458744618454361e-02,4.077471314888105880e-01,2.854946730649769449e-01,4.337018633435688608e-01,1.029301350709197621e-01,2.506727066063679232e-01,1.849353096670488805e-01,7.032172825477404077e-01,4.355017878284666022e-01,2.650330497246484729e-01,1.565333771525916629e-01,6.100274128013684072e-01,1.764141722176866267e-01,4.906199396636052312e-01,2.666113552565918532e-01,1.876987722249399970e-01,3.440387311268225390e-01,3.807162425123331584e-01,1.216768596771191230e-01,3.492016338894616823e-01,1.295736624594792941e-01,4.136997404246644527e-01,5.284300752316110072e-01,7.985240763881440440e-02,5.699489826239417800e-01,6.376378346215088033e-01,2.302337395447834889e-01,2.099162241181046773e-01,5.494880836797547685e-01,3.572504986810333127e-01,3.394773586245293240e-01,4.770015032253731579e-01,7.184600811396615883e-02,1.982003441652603337e-01,1.936165518278409881e-01,4.477678274286084892e-01,1.547555363941698348e-01,2.325710147831015484e-01,2.924068600563271558e-01,4.692430391115904875e-01,2.207583130334472288e-01,2.274922339445269448e-01,1.544413791345912723e-01,5.090978346705155033e-01,2.142680764405212324e-01,5.550105186845254446e-01,1.387950826227497270e-01,1.917721350806514957e-01,2.758436296309275115e-01,3.467619410660687795e-01,1.890350321473057982e-01,3.065655200316892426e-01,2.143755400417332313e-01,2.456878292180635637e-01,5.425070735289185819e-01,9.423227397315937781e-02,2.912671954097719729e-01,5.309672351272501922e-01,3.719002886415616604e-01,3.464486382000662168e-01,1.295736624594792941e-01,4.136997404246644527e-01,5.284300752316110072e-01,7.985240763881440440e-02,5.699489826239417800e-01,6.376378346215088033e-01,2.302337395447834889e-01,2.099162241181046773e-01,5.494880836797547685e-01,3.572504986810333127e-01,3.394773586245293240e-01,4.770015032253731579e-01,7.184600811396615883e-02,1.982003441652603337e-01,1.936165518278409881e-01,4.477678274286084892e-01,1.547555363941698348e-01,2.325710147831015484e-01,2.924068600563271558e-01,4.692430391115904875e-01,2.207583130334472288e-01,2.274922339445269448e-01,1.544413791345912723e-01,5.090978346705155033e-01,2.142680764405212324e-01,5.550105186845254446e-01,1.387950826227497270e-01,1.917721350806514957e-01,2.758436296309275115e-01,3.467619410660687795e-01,1.890350321473057982e-01,3.065655200316892426e-01,1.081125502346272221e-01,4.337730722295505825e-01,4.529508993991970822e-01,1.278345246461020379e-01,5.221660224484774293e-01,7.462035176472258113e-01,1.807961318614190460e-01,1.468822800714038590e-01,5.771518502385194482e-01,2.271968823943565641e-01,2.084672758813255200e-01,3.202513237600780882e-01,1.281860337569097966e-02,1.400158039067459781e-01,6.327151953156009978e-02,3.928817527276979304e-01,2.781496630598013775e-01,1.985759260581257402e-01,5.091900819747595675e-01,2.034507551548052073e-01,4.821499661336024062e-02,2.135823548868746591e-01,2.293048107934733126e-01,3.433620779764575692e-01,2.816106710079240849e-01,5.708616208919118362e-01,8.311075410932149132e-02,2.307553608518558563e-01,2.155629938908598664e-01,2.570652743393984641e-01,2.876618035217195501e-01,2.848617607565924192e-01,2.087059897239536832e-01,2.750514848546432023e-01,5.337302827538438210e-01,1.554566482506881675e-01,3.141076456010668538e-01,6.131209217603625916e-01,4.795846477707729760e-01,2.569076742852027251e-01,1.081125502346272221e-01,4.337730722295505825e-01,4.529508993991970822e-01,1.278345246461020379e-01,5.221660224484774293e-01,7.462035176472258113e-01,1.807961318614190460e-01,1.468822800714038590e-01,5.771518502385194482e-01,2.271968823943565641e-01,2.084672758813255200e-01,3.202513237600780882e-01,1.281860337569097966e-02,1.400158039067459781e-01,6.327151953156009978e-02,3.928817527276979304e-01,2.781496630598013775e-01,1.985759260581257402e-01,5.091900819747595675e-01,2.034507551548052073e-01,4.821499661336024062e-02,2.135823548868746591e-01,2.293048107934733126e-01,3.433620779764575692e-01,2.816106710079240849e-01,5.708616208919118362e-01,8.311075410932149132e-02,2.307553608518558563e-01,2.155629938908598664e-01,2.570652743393984641e-01,2.876618035217195501e-01,2.848617607565924192e-01,9.006365838872905372e-02,4.395811566514523094e-01,3.422611993011520637e-01,2.977123410701863482e-01,4.679658621886246261e-01,7.144793948596374067e-01,1.084535628778371535e-01,1.123092244929123074e-01,5.587651504139166114e-01,1.556589154459015190e-01,9.631226685989313641e-02,2.167462537195706529e-01,8.110283716162954015e-02,3.847871168919982932e-01,8.263885184156495589e-02,2.707885438051302884e-01,4.263483081886087489e-01,1.644619945506856362e-01,6.910553711982648784e-01,1.974909650264372596e-01,2.260988949830081418e-01,2.285559720690853724e-01,3.541679208546386071e-01,1.582484847674880402e-01,3.516332828478671013e-01,5.309470732983125885e-01,2.668648684300737317e-01,2.904616844907019768e-01,1.897733170575988393e-01,1.334435857980003914e-01,3.721809211846117682e-01,2.553327825437017862e-01,1.930646414516479503e-01,3.248975265326032869e-01,4.727761941346787511e-01,2.221916008017456312e-01,3.449618491982536228e-01,6.197493310305191017e-01,5.784890195025881310e-01,2.105200173526085294e-01,9.006365838872905372e-02,4.395811566514523094e-01,3.422611993011520637e-01,2.977123410701863482e-01,4.679658621886246261e-01,7.144793948596374067e-01,1.084535628778371535e-01,1.123092244929123074e-01,5.587651504139166114e-01,1.556589154459015190e-01,9.631226685989313641e-02,2.167462537195706529e-01,8.110283716162954015e-02,3.847871168919982932e-01,8.263885184156495589e-02,2.707885438051302884e-01,4.263483081886087489e-01,1.644619945506856362e-01,6.910553711982648784e-01,1.974909650264372596e-01,2.260988949830081418e-01,2.285559720690853724e-01,3.541679208546386071e-01,1.582484847674880402e-01,3.516332828478671013e-01,5.309470732983125885e-01,2.668648684300737317e-01,2.904616844907019768e-01,1.897733170575988393e-01,1.334435857980003914e-01,3.721809211846117682e-01,2.553327825437017862e-01,6.344256552078492151e-02,4.168254195338976786e-01,2.529805504303846431e-01,4.518647587630473250e-01,4.416814309151561035e-01,5.533734825382329303e-01,2.303973996376031466e-02,1.637394162566524758e-01,4.925513008786566727e-01,1.684987992117230049e-01,1.824944426063006553e-01,2.457769120865087031e-01,1.806873056017005152e-01,5.626199082182820055e-01,1.885190236725198809e-01,1.011439296332281301e-01,5.651132108803426091e-01,1.740366823975402488e-01,7.723051592746260630e-01,3.907629266259413092e-01,3.790333212395339824e-01,2.472584545440743853e-01,4.964889993366761733e-01,6.880776848832044490e-02,3.984881802922357052e-01,4.378015153881752441e-01,4.383859681415663290e-01,3.326163076457910317e-01,2.357831424964135503e-01,4.888852343843591575e-02,4.124686485158685634e-01,1.822201536584951431e-01,2.234103014682196076e-01,3.889682942747307304e-01,3.705245250723913086e-01,2.464668198281403377e-01,3.580923486840213443e-01,5.557204976437059019e-01,6.146938234439098814e-01,2.092780908292653785e-01,6.344256552078492151e-02,4.168254195338976786e-01,2.529805504303846431e-01,4.518647587630473250e-01,4.416814309151561035e-01,5.533734825382329303e-01,2.303973996376031466e-02,1.637394162566524758e-01,4.925513008786566727e-01,1.684987992117230049e-01,1.824944426063006553e-01,2.457769120865087031e-01,1.806873056017005152e-01,5.626199082182820055e-01,1.885190236725198809e-01,1.011439296332281301e-01,5.651132108803426091e-01,1.740366823975402488e-01,7.723051592746260630e-01,3.907629266259413092e-01,3.790333212395339824e-01,2.472584545440743853e-01,4.964889993366761733e-01,6.880776848832044490e-02,3.984881802922357052e-01,4.378015153881752441e-01,4.383859681415663290e-01,3.326163076457910317e-01,2.357831424964135503e-01,4.888852343843591575e-02,4.124686485158685634e-01,1.822201536584951431e-01,4.339363551911599309e-02,3.607764231417268097e-01,2.805318317810224227e-01,5.603974290907042244e-01,4.584771028856952091e-01,3.311823611559769343e-01,9.595266407020984489e-02,2.468243215825711989e-01,3.857032395164016192e-01,1.876492067405048925e-01,3.164186596270266438e-01,3.015302878956957477e-01,2.599351966420463955e-01,6.078050343686989265e-01,2.368143054679401616e-01,1.020260452144340774e-01,6.657232879732184472e-01,2.219769467858914436e-01,7.240299965042905628e-01,5.011394646842912692e-01,4.565995075338836195e-01,2.482915245245043423e-01,6.201697569554388556e-01,1.738204690949071152e-01,4.062584707766104253e-01,3.056120350555046605e-01,5.490367310583254001e-01,3.273452289040454932e-01,3.351098934810378682e-01,1.228085500113349077e-01,3.905959892477064987e-01,6.608949197160758626e-02,2.945748492158130061e-01,4.579818129051180242e-01,2.526377803536096756e-01,2.282011505230490123e-01,3.348778378450030235e-01,4.466709676549487917e-01,5.574581711878693335e-01,2.472455318224407173e-01,4.339363551911599309e-02,3.607764231417268097e-01,2.805318317810224227e-01,5.603974290907042244e-01,4.584771028856952091e-01,3.311823611559769343e-01,9.595266407020984489e-02,2.468243215825711989e-01,3.857032395164016192e-01,1.876492067405048925e-01,3.164186596270266438e-01,3.015302878956957477e-01,2.599351966420463955e-01,6.078050343686989265e-01,2.368143054679401616e-01,1.020260452144340774e-01,6.657232879732184472e-01,2.219769467858914436e-01,7.240299965042905628e-01,5.011394646842912692e-01,4.565995075338836195e-01,2.482915245245043423e-01,6.201697569554388556e-01,1.738204690949071152e-01,4.062584707766104253e-01,3.056120350555046605e-01,5.490367310583254001e-01,3.273452289040454932e-01,3.351098934810378682e-01,1.228085500113349077e-01,3.905959892477064987e-01,6.608949197160758626e-02,7.224916766447507521e-02,2.867185285237239811e-01,4.018060982676425197e-01,6.122202540112685609e-01,4.991939993945944676e-01,2.403240472432069397e-01,1.922711802772736345e-01,3.129885590460995126e-01,2.545223067670686068e-01,1.863301023168245363e-01,4.183052045800535468e-01,3.089094179748959612e-01,2.933382682491894045e-01,5.057857912743251028e-01,2.142731661977086421e-01,2.769488342549498161e-01,7.059654628777365382e-01,2.544402297672948565e-01,5.546987046778107944e-01,5.057442089455873591e-01,4.510830438230081785e-01,2.344276876164991807e-01,6.920017049001302434e-01,2.514819047909155336e-01,3.703408586202338593e-01,1.597549008011887595e-01,5.759411335761731587e-01,2.608717946812345034e-01,4.441561172645042688e-01,1.656109562065677943e-01,3.020773148903193595e-01,1.575422760223721408e-01,3.518319868295550212e-01,5.172639597661651267e-01,1.599742870316842314e-01,1.737028628073683523e-01,2.730984887506571201e-01,3.318652478942656914e-01,4.063374550200309909e-01,3.107589685688228465e-01,7.224916766447507521e-02,2.867185285237239811e-01,4.018060982676425197e-01,6.122202540112685609e-01,4.991939993945944676e-01,2.403240472432069397e-01,1.922711802772736345e-01,3.129885590460995126e-01,2.545223067670686068e-01,1.863301023168245363e-01,4.183052045800535468e-01,3.089094179748959612e-01,2.933382682491894045e-01,5.057857912743251028e-01,2.142731661977086421e-01,2.769488342549498161e-01,7.059654628777365382e-01,2.544402297672948565e-01,5.546987046778107944e-01,5.057442089455873591e-01,4.510830438230081785e-01,2.344276876164991807e-01,6.920017049001302434e-01,2.514819047909155336e-01,3.703408586202338593e-01,1.597549008011887595e-01,5.759411335761731587e-01,2.608717946812345034e-01,4.441561172645042688e-01,1.656109562065677943e-01,3.020773148903193595e-01,1.575422760223721408e-01,1.221804830597120473e-01,2.339601352180431248e-01,5.281545558138787122e-01,6.120046551997734285e-01,5.335713372168036095e-01,3.844630735161420065e-01,2.615415848358400019e-01,3.427793196150044075e-01,1.232839197710058204e-01,1.962436731258007938e-01,4.774088214399616614e-01,2.680368611595385642e-01,2.679696578362077419e-01,2.827222352176423925e-01,1.280207451928781215e-01,4.081065877551331433e-01,6.739394187065591568e-01,2.364153309597042674e-01,3.122544135602371984e-01,4.411767920432618229e-01,3.798372874734232130e-01,2.340855867401807067e-01,6.937388258568853994e-01,2.925572330492196560e-01,2.959611694851129737e-01,5.199338845203428650e-02,5.165194522692145851e-01,1.371143415679518807e-01,5.305876450580835346e-01,1.521722943494772384e-01,1.561218082000217777e-01,3.531933819321398382e-01,3.592148904006701726e-01,5.494866142778749296e-01,1.243854869081884168e-01,9.435428273944315714e-02,2.080967769022635805e-01,2.542355300895955961e-01,1.936471670407700074e-01,3.784773674175667679e-01,1.221804830597120473e-01,2.339601352180431248e-01,5.281545558138787122e-01,6.120046551997734285e-01,5.335713372168036095e-01,3.844630735161420065e-01,2.615415848358400019e-01,3.427793196150044075e-01,1.232839197710058204e-01,1.962436731258007938e-01,4.774088214399616614e-01,2.680368611595385642e-01,2.679696578362077419e-01,2.827222352176423925e-01,1.280207451928781215e-01,4.081065877551331433e-01,6.739394187065591568e-01,2.364153309597042674e-01,3.122544135602371984e-01,4.411767920432618229e-01,3.798372874734232130e-01,2.340855867401807067e-01,6.937388258568853994e-01,2.925572330492196560e-01,2.959611694851129737e-01,5.199338845203428650e-02,5.165194522692145851e-01,1.371143415679518807e-01,5.305876450580835346e-01,1.521722943494772384e-01,1.561218082000217777e-01,3.531933819321398382e-01,1.751222754558711958e-01,2.360308834085278196e-01,6.178189914956606632e-01,5.750023921529142656e-01,5.423500516351956735e-01,5.132385443101282751e-01,2.871798731931705650e-01,3.319678355831427452e-01,5.193977481976056604e-02,2.367926473050432634e-01,4.968014131560873348e-01,2.054274261291751114e-01,1.891822599165838281e-01,1.504596423058859704e-02,1.481709326577878433e-02,4.735252507826921975e-01,5.707857459106310261e-01,1.594924747168472989e-01,1.412768730399770467e-01,3.827872690993939786e-01,2.966031550770681924e-01,2.736386764871694965e-01,6.305963639927871789e-01,3.136685892784016327e-01,1.942071230777872859e-01,1.015574979700303027e-01,3.897220851626603255e-01,3.290998211141054480e-02,5.723162038510133387e-01,1.606582754601136587e-01,4.216634069319234734e-02,5.263643537457222132e-01,3.087220208043424674e-01,5.401781635288248617e-01,1.006614534723080517e-01,5.975422772876238381e-02,2.354259524717952079e-01,2.339946413564753802e-01,1.070446523531191352e-01,4.264187781569214186e-01,1.751222754558711958e-01,2.360308834085278196e-01,6.178189914956606632e-01,5.750023921529142656e-01,5.423500516351956735e-01,5.132385443101282751e-01,2.871798731931705650e-01,3.319678355831427452e-01,5.193977481976056604e-02,2.367926473050432634e-01,4.968014131560873348e-01,2.054274261291751114e-01,1.891822599165838281e-01,1.504596423058859704e-02,1.481709326577878433e-02,4.735252507826921975e-01,5.707857459106310261e-01,1.594924747168472989e-01,1.412768730399770467e-01,3.827872690993939786e-01,2.966031550770681924e-01,2.736386764871694965e-01,6.305963639927871789e-01,3.136685892784016327e-01,1.942071230777872859e-01,1.015574979700303027e-01,3.897220851626603255e-01,3.290998211141054480e-02,5.723162038510133387e-01,1.606582754601136587e-01,4.216634069319234734e-02,5.263643537457222132e-01,0.000000000000000000e+00,0.000000000000000000e+00,0.000000000000000000e+00,0.000000000000000000e+00,0.000000000000000000e+00,0.000000000000000000e+00,0.000000000000000000e+00,0.000000000000000000e+00,0.000000000000000000e+00,0.000000000000000000e+00,0.000000000000000000e+00,0.000000000000000000e+00,0.000000000000000000e+00,0.000000000000000000e+00,0.000000000000000000e+00,0.000000000000000000e+00,0.000000000000000000e+00,0.000000000000000000e+00,0.000000000000000000e+00,0.000000000000000000e+00,0.000000000000000000e+00,0.000000000000000000e+00,0.000000000000000000e+00,0.000000000000000000e+00,0.000000000000000000e+00,0.000000000000000000e+00,0.000000000000000000e+00,0.000000000000000000e+00,0.000000000000000000e+00,0.000000000000000000e+00,0.000000000000000000e+00,0.000000000000000000e+00,0.000000000000000000e+00,0.000000000000000000e+00,0.000000000000000000e+00,0.000000000000000000e+00,0.000000000000000000e+00,0.000000000000000000e+00,0.000000000000000000e+00,0.000000000000000000e+00,0.000000000000000000e+00,0.000000000000000000e+00,0.000000000000000000e+00,0.000000000000000000e+00,0.000000000000000000e+00,0.000000000000000000e+00,0.000000000000000000e+00,0.000000000000000000e+00,0.000000000000000000e+00,0.000000000000000000e+00,0.000000000000000000e+00,0.000000000000000000e+00,0.000000000000000000e+00,0.000000000000000000e+00,0.000000000000000000e+00,0.000000000000000000e+00,0.000000000000000000e+00,0.000000000000000000e+00,0.000000000000000000e+00,0.000000000000000000e+00,0.000000000000000000e+00,0.000000000000000000e+00,0.000000000000000000e+00,0.000000000000000000e+00,0.000000000000000000e+00,0.000000000000000000e+00,0.000000000000000000e+00,0.000000000000000000e+00,0.000000000000000000e+00,0.000000000000000000e+00,0.000000000000000000e+00,0.000000000000000000e+00,0.000000000000000000e+00,0.000000000000000000e+00
